time,sig_0
1,-0.165
2,-0.155
3,-0.195
4,-0.205
5,-0.185
6,-0.155
7,-0.135
8,-0.095
9,-0.075
10,-0.065
11,-0.065
12,-0.125
13,-0.125
14,-0.125
15,-0.115
16,-0.125
17,-0.165
18,-0.115
19,-0.145
20,-0.115
21,-0.135
22,-0.135
23,-0.125
24,-0.175
25,-0.145
26,-0.125
27,-0.145
28,-0.145
29,-0.135
30,-0.165
31,-0.155
32,-0.095
33,-0.105
34,-0.075
35,-0.085
36,0.025
37,0.025
38,-0.025
39,-0.085
40,-0.115
41,-0.145
42,-0.125
43,-0.155
44,-0.205
45,-0.215
46,-0.215
47,-0.165
48,-0.165
49,-0.155
50,-0.615
51,-0.855
52,-0.185
53,1.295
54,2.575
55,2.675
56,2.445
57,0.735
58,-0.415
59,-0.295
60,-0.285
61,-0.345
62,-0.365
63,-0.345
64,-0.305
65,-0.315
66,-0.305
67,-0.265
68,-0.235
69,-0.265
70,-0.245
71,-0.215
72,-0.195
73,-0.175
74,-0.185
75,-0.155
76,-0.125
77,-0.145
78,-0.125
79,-0.145
80,-0.155
81,-0.185
82,-0.175
83,-0.175
84,-0.165
85,-0.165
86,-0.115
87,-0.065
88,-0.095
89,-0.115
90,-0.075
91,-0.115
92,-0.155
93,-0.105
94,-0.125
95,-0.135
96,-0.125
97,-0.115
98,-0.105
99,-0.135
100,-0.135
101,-0.135
102,-0.145
103,-0.125
104,-0.115
105,-0.135
106,-0.135
107,-0.165
108,-0.155
109,-0.115
110,-0.085
111,-0.055
112,-0.055
113,-0.045
114,0.065
115,0.005
116,-0.015
117,-0.055
118,-0.115
119,-0.135
120,-0.135
121,-0.175
122,-0.205
123,-0.225
124,-0.175
125,-0.175
126,-0.155
127,-0.255
128,-0.875
129,-0.645
130,0.645
131,2.315
132,2.925
133,2.725
134,1.225
135,-0.185
136,-0.275
137,-0.275
138,-0.285
139,-0.285
140,-0.335
141,-0.305
142,-0.285
143,-0.275
144,-0.275
145,-0.245
146,-0.245
147,-0.225
148,-0.195
149,-0.205
150,-0.165
151,-0.125
152,-0.135
153,-0.105
154,-0.115
155,-0.115
156,-0.095
157,-0.155
158,-0.165
159,-0.185
160,-0.185
161,-0.175
162,-0.195
163,-0.135
164,-0.105
165,-0.105
166,-0.095
167,-0.095
168,-0.115
169,-0.105
170,-0.115
171,-0.115
172,-0.125
173,-0.115
174,-0.115
175,-0.115
176,-0.115
177,-0.105
178,-0.105
179,-0.095
180,-0.125
181,-0.115
182,-0.105
183,-0.095
184,-0.105
185,-0.105
186,-0.105
187,-0.075
188,-0.045
189,-0.035
190,-0.025
191,0.065
192,0.015
193,-0.055
194,-0.095
195,-0.045
196,-0.095
197,-0.145
198,-0.155
199,-0.155
200,-0.185
201,-0.185
202,-0.165
203,-0.155
204,-0.155
205,-0.685
206,-0.845
207,0.055
208,1.645
209,2.725
210,2.855
211,2.255
212,0.495
213,-0.255
214,-0.215
215,-0.255
216,-0.295
217,-0.305
218,-0.335
219,-0.305
220,-0.345
221,-0.305
222,-0.265
223,-0.265
224,-0.265
225,-0.205
226,-0.215
227,-0.185
228,-0.165
229,-0.135
230,-0.155
231,-0.105
232,-0.125
233,-0.145
234,-0.135
235,-0.115
236,-0.175
237,-0.195
238,-0.215
239,-0.185
240,-0.185
241,-0.155
242,-0.125
243,-0.125
244,-0.135
245,-0.105
246,-0.125
247,-0.135
248,-0.165
249,-0.175
250,-0.175
251,-0.095
252,-0.125
253,-0.135
254,-0.145
255,-0.125
256,-0.115
257,-0.095
258,-0.125
259,-0.155
260,-0.125
261,-0.125
262,-0.165
263,-0.135
264,-0.115
265,-0.055
266,-0.035
267,-0.085
268,-0.045
269,0.045
270,-0.005
271,-0.045
272,-0.125
273,-0.145
274,-0.115
275,-0.135
276,-0.175
277,-0.225
278,-0.205
279,-0.205
280,-0.245
281,-0.185
282,-0.195
283,-0.835
284,-0.775
285,0.295
286,2.085
287,2.885
288,2.645
289,1.575
290,0.005
291,-0.305
292,-0.265
293,-0.315
294,-0.355
295,-0.355
296,-0.365
297,-0.375
298,-0.335
299,-0.295
300,-0.285
301,-0.285
302,-0.265
303,-0.255
304,-0.245
305,-0.205
306,-0.175
307,-0.185
308,-0.145
309,-0.155
310,-0.175
311,-0.145
312,-0.215
313,-0.215
314,-0.215
315,-0.265
316,-0.245
317,-0.225
318,-0.175
319,-0.185
320,-0.175
321,-0.175
322,-0.175
323,-0.165
324,-0.175
325,-0.185
326,-0.205
327,-0.185
328,-0.185
329,-0.185
330,-0.165
331,-0.175
332,-0.195
333,-0.165
334,-0.185
335,-0.195
336,-0.165
337,-0.175
338,-0.175
339,-0.175
340,-0.185
341,-0.185
342,-0.195
343,-0.205
344,-0.125
345,-0.125
346,-0.145
347,-0.095
348,-0.025
349,-0.035
350,-0.075
351,-0.115
352,-0.145
353,-0.175
354,-0.215
355,-0.225
356,-0.235
357,-0.245
358,-0.255
359,-0.245
360,-0.235
361,-0.185
362,-0.725
363,-0.905
364,-0.105
365,1.645
366,2.615
367,2.535
368,1.825
369,0.275
370,-0.345
371,-0.325
372,-0.335
373,-0.365
374,-0.375
375,-0.395
376,-0.375
377,-0.395
378,-0.355
379,-0.325
380,-0.345
381,-0.325
382,-0.285
383,-0.285
384,-0.255
385,-0.275
386,-0.295
387,-0.135
388,-0.185
389,-0.185
390,-0.185
391,-0.215
392,-0.215
393,-0.285
394,-0.295
395,-0.305
396,-0.225
397,-0.195
398,-0.155
399,-0.145
400,-0.175
401,-0.165
402,-0.205
403,-0.145
404,-0.185
405,-0.215
406,-0.215
407,-0.185
408,-0.195
409,-0.255
410,-0.185
411,-0.205
412,-0.225
413,-0.165
414,-0.155
415,-0.185
416,-0.205
417,-0.205
418,-0.215
419,-0.175
420,-0.185
421,-0.215
422,-0.185
423,-0.125
424,-0.125
425,-0.155
426,-0.095
427,0.005
428,-0.065
429,-0.135
430,-0.145
431,-0.105
432,-0.165
433,-0.215
434,-0.225
435,-0.265
436,-0.235
437,-0.265
438,-0.275
439,-0.205
440,-0.325
441,-0.915
442,-0.695
443,0.545
444,2.155
445,2.655
446,2.375
447,1.055
448,-0.215
449,-0.335
450,-0.345
451,-0.375
452,-0.365
453,-0.385
454,-0.395
455,-0.365
456,-0.375
457,-0.355
458,-0.325
459,-0.315
460,-0.275
461,-0.245
462,-0.235
463,-0.215
464,-0.225
465,-0.205
466,-0.195
467,-0.205
468,-0.185
469,-0.185
470,-0.205
471,-0.225
472,-0.215
473,-0.215
474,-0.255
475,-0.235
476,-0.185
477,-0.165
478,-0.145
479,-0.135
480,-0.155
481,-0.155
482,-0.145
483,-0.135
484,-0.155
485,-0.165
486,-0.165
487,-0.145
488,-0.165
489,-0.185
490,-0.145
491,-0.175
492,-0.135
493,-0.165
494,-0.135
495,-0.125
496,-0.135
497,-0.145
498,-0.145
499,-0.125
500,-0.135
501,-0.115
502,-0.075
503,-0.075
504,-0.095
505,0.005
506,0.075
507,-0.005
508,-0.055
509,-0.095
510,-0.075
511,-0.115
512,-0.145
513,-0.225
514,-0.175
515,-0.165
516,-0.195
517,-0.155
518,-0.135
519,-0.185
520,-0.745
521,-0.695
522,0.475
523,2.205
524,2.795
525,2.585
526,1.415
527,-0.055
528,-0.295
529,-0.265
530,-0.295
531,-0.285
532,-0.285
533,-0.305
534,-0.295
535,-0.255
536,-0.275
537,-0.275
538,-0.225
539,-0.195
540,-0.185
541,-0.175
542,-0.155
543,-0.145
544,-0.145
545,-0.115
546,-0.135
547,-0.115
548,-0.105
549,-0.165
550,-0.145
551,-0.195
552,-0.165
553,-0.125
554,-0.145
555,-0.105
556,-0.055
557,-0.075
558,-0.075
559,-0.095
560,-0.065
561,-0.075
562,-0.105
563,-0.095
564,-0.085
565,-0.135
566,-0.125
567,-0.095
568,-0.115
569,-0.095
570,-0.115
571,-0.105
572,-0.105
573,-0.105
574,-0.165
575,-0.145
576,-0.065
577,-0.095
578,-0.095
579,-0.065
580,-0.015
581,-0.035
582,-0.025
583,0.085
584,0.015
585,-0.045
586,-0.085
587,-0.085
588,-0.105
589,-0.155
590,-0.155
591,-0.155
592,-0.185
593,-0.175
594,-0.175
595,-0.135
596,-0.305
597,-0.855
598,-0.455
599,0.895
600,2.455
601,2.815
602,2.545
603,1.225
604,-0.125
605,-0.325
606,-0.255
607,-0.285
608,-0.305
609,-0.335
610,-0.305
611,-0.275
612,-0.275
613,-0.305
614,-0.235
615,-0.235
616,-0.215
617,-0.205
618,-0.175
619,-0.155
620,-0.135
621,-0.155
622,-0.095
623,-0.105
624,-0.155
625,-0.135
626,-0.105
627,-0.145
628,-0.135
629,-0.195
630,-0.165
631,-0.115
632,-0.105
633,-0.125
634,-0.085
635,-0.075
636,-0.075
637,-0.075
638,-0.105
639,-0.135
640,-0.125
641,-0.115
642,-0.095
643,-0.115
644,-0.135
645,-0.075
646,-0.095
647,-0.105
648,-0.115
649,-0.105
650,-0.105
651,-0.095
652,-0.085
653,-0.075
654,-0.095
655,-0.095
656,-0.035
657,-0.005
658,-0.055
659,-0.015
660,0.085
661,0.045
662,-0.005
663,-0.065
664,-0.055
665,-0.055
666,-0.085
667,-0.125
668,-0.185
669,-0.125
670,-0.145
671,-0.155
672,-0.125
673,-0.155
674,-0.735
675,-0.715
676,0.385
677,2.005
678,2.805
679,2.735
680,1.635
681,0.075
682,-0.205
683,-0.215
684,-0.225
685,-0.275
686,-0.305
687,-0.285
688,-0.275
689,-0.265
690,-0.255
691,-0.275
692,-0.225
693,-0.175
694,-0.195
695,-0.175
696,-0.125
697,-0.075
698,-0.105
699,-0.075
700,-0.125
701,-0.095
702,-0.045
703,-0.085
704,-0.145
705,-0.185
706,-0.255
707,-0.205
708,-0.175
709,-0.145
710,-0.165
711,-0.115
712,-0.085
713,-0.085
714,-0.105
715,-0.115
716,-0.105
717,-0.135
718,-0.145
719,-0.105
720,-0.125
721,-0.135
722,-0.115
723,-0.105
724,-0.125
725,-0.125
726,-0.165
727,-0.095
728,-0.075
729,-0.105
730,-0.125
731,-0.135
732,-0.115
733,-0.115
734,-0.115
735,-0.035
736,-0.045
737,-0.065
738,0.025
739,0.045
740,-0.025
741,-0.075
742,-0.105
743,-0.115
744,-0.115
745,-0.145
746,-0.175
747,-0.195
748,-0.255
749,-0.185
750,-0.155
751,-0.135
752,-0.405
753,-0.805
754,-0.445
755,1.025
756,2.465
757,2.855
758,2.465
759,0.995
760,-0.105
761,-0.225
762,-0.265
763,-0.295
764,-0.335
765,-0.325
766,-0.325
767,-0.335
768,-0.305
769,-0.295
770,-0.255
771,-0.255
772,-0.225
773,-0.205
774,-0.205
775,-0.185
776,-0.155
777,-0.135
778,-0.105
779,-0.095
780,-0.125
781,-0.135
782,-0.175
783,-0.185
784,-0.155
785,-0.205
786,-0.215
787,-0.195
788,-0.155
789,-0.125
790,-0.155
791,-0.115
792,-0.125
793,-0.135
794,-0.165
795,-0.145
796,-0.165
797,-0.115
798,-0.115
799,-0.115
800,-0.135
801,-0.145
802,-0.145
803,-0.125
804,-0.125
805,-0.095
806,-0.095
807,-0.105
808,-0.115
809,-0.135
810,-0.135
811,-0.115
812,-0.145
813,-0.085
814,-0.045
815,-0.065
816,-0.065
817,0.065
818,0.045
819,0.005
820,-0.055
821,-0.095
822,-0.105
823,-0.135
824,-0.155
825,-0.205
826,-0.195
827,-0.195
828,-0.195
829,-0.175
830,-0.195
831,-0.305
832,-0.815
833,-0.615
834,0.655
835,2.305
836,2.765
837,2.475
838,1.085
839,-0.155
840,-0.295
841,-0.255
842,-0.305
843,-0.315
844,-0.335
845,-0.335
846,-0.315
847,-0.315
848,-0.285
849,-0.265
850,-0.255
851,-0.255
852,-0.215
853,-0.185
854,-0.145
855,-0.165
856,-0.145
857,-0.125
858,-0.125
859,-0.095
860,-0.125
861,-0.155
862,-0.145
863,-0.205
864,-0.215
865,-0.215
866,-0.175
867,-0.195
868,-0.085
869,-0.055
870,-0.095
871,-0.085
872,-0.115
873,-0.125
874,-0.115
875,-0.125
876,-0.145
877,-0.125
878,-0.105
879,-0.105
880,-0.115
881,-0.105
882,-0.075
883,-0.085
884,-0.095
885,-0.095
886,-0.075
887,-0.085
888,-0.105
889,-0.095
890,-0.085
891,-0.085
892,-0.095
893,-0.115
894,-0.085
895,-0.105
896,-0.055
897,-0.045
898,-0.005
899,0.015
900,0.065
901,0.035
902,0.015
903,-0.025
904,-0.045
905,-0.085
906,-0.075
907,-0.105
908,-0.155
909,-0.185
910,-0.145
911,-0.135
912,-0.145
913,-0.115
914,-0.645
915,-0.675
916,0.275
917,1.925
918,2.745
919,2.535
920,1.725
921,0.045
922,-0.335
923,-0.265
924,-0.265
925,-0.285
926,-0.285
927,-0.315
928,-0.295
929,-0.275
930,-0.275
931,-0.265
932,-0.235
933,-0.225
934,-0.195
935,-0.175
936,-0.155
937,-0.145
938,-0.205
939,-0.125
940,-0.105
941,-0.105
942,-0.095
943,-0.125
944,-0.115
945,-0.145
946,-0.165
947,-0.145
948,-0.135
949,-0.085
950,-0.065
951,-0.065
952,-0.085
953,-0.095
954,-0.085
955,-0.075
956,-0.115
957,-0.115
958,-0.135
959,-0.105
960,-0.145
961,-0.115
962,-0.125
963,-0.135
964,-0.125
965,-0.145
966,-0.085
967,-0.095
968,-0.145
969,-0.105
970,-0.105
971,-0.105
972,-0.145
973,-0.105
974,-0.135
975,-0.125
976,-0.085
977,-0.075
978,-0.085
979,-0.105
980,0.005
981,0.065
982,-0.015
983,-0.085
984,-0.105
985,-0.105
986,-0.105
987,-0.155
988,-0.165
989,-0.185
990,-0.195
991,-0.185
992,-0.185
993,-0.165
994,-0.165
995,-0.745
996,-0.685
997,0.545
998,2.165
999,2.835
1000,2.635
1001,1.655
1002,-0.015
1003,-0.415
1004,-0.245
1005,-0.295
1006,-0.335
1007,-0.325
1008,-0.325
1009,-0.335
1010,-0.315
1011,-0.285
1012,-0.255
1013,-0.265
1014,-0.265
1015,-0.215
1016,-0.205
1017,-0.195
1018,-0.165
1019,-0.125
1020,-0.145
1021,-0.155
1022,-0.145
1023,-0.125
1024,-0.215
1025,-0.165
1026,-0.175
1027,-0.195
1028,-0.165
1029,-0.155
1030,-0.125
1031,-0.095
1032,-0.105
1033,-0.095
1034,-0.135
1035,-0.135
1036,-0.135
1037,-0.165
1038,-0.135
1039,-0.135
1040,-0.135
1041,-0.145
1042,-0.145
1043,-0.135
1044,-0.145
1045,-0.125
1046,-0.115
1047,-0.105
1048,-0.135
1049,-0.115
1050,-0.105
1051,-0.145
1052,-0.135
1053,-0.135
1054,-0.125
1055,-0.125
1056,-0.085
1057,-0.075
1058,-0.065
1059,0.015
1060,0.045
1061,0.005
1062,-0.035
1063,-0.085
1064,-0.115
1065,-0.115
1066,-0.125
1067,-0.145
1068,-0.195
1069,-0.205
1070,-0.175
1071,-0.145
1072,-0.155
1073,-0.265
1074,-0.755
1075,-0.545
1076,0.695
1077,2.195
1078,2.715
1079,2.535
1080,1.145
1081,-0.135
1082,-0.245
1083,-0.215
1084,-0.265
1085,-0.355
1086,-0.335
1087,-0.305
1088,-0.315
1089,-0.295
1090,-0.295
1091,-0.275
1092,-0.255
1093,-0.255
1094,-0.205
1095,-0.165
1096,-0.145
1097,-0.145
1098,-0.125
1099,-0.105
1100,-0.115
1101,-0.135
1102,-0.135
1103,-0.125
1104,-0.185
1105,-0.215
1106,-0.235
1107,-0.205
1108,-0.195
1109,-0.165
1110,-0.135
1111,-0.135
1112,-0.125
1113,-0.135
1114,-0.135
1115,-0.135
1116,-0.145
1117,-0.135
1118,-0.135
1119,-0.135
1120,-0.125
1121,-0.115
1122,-0.145
1123,-0.105
1124,-0.115
1125,-0.135
1126,-0.135
1127,-0.095
1128,-0.125
1129,-0.155
1130,-0.135
1131,-0.135
1132,-0.115
1133,-0.135
1134,-0.105
1135,-0.085
1136,-0.025
1137,-0.045
1138,-0.105
1139,-0.005
1140,0.075
1141,-0.005
1142,-0.045
1143,-0.105
1144,-0.095
1145,-0.125
1146,-0.095
1147,-0.135
1148,-0.205
1149,-0.195
1150,-0.185
1151,-0.175
1152,-0.185
1153,-0.145
1154,-0.675
1155,-0.765
1156,0.335
1157,2.115
1158,2.855
1159,2.615
1160,1.305
1161,-0.095
1162,-0.265
1163,-0.265
1164,-0.285
1165,-0.325
1166,-0.355
1167,-0.305
1168,-0.325
1169,-0.305
1170,-0.305
1171,-0.285
1172,-0.245
1173,-0.235
1174,-0.205
1175,-0.225
1176,-0.135
1177,-0.175
1178,-0.125
1179,-0.075
1180,-0.085
1181,-0.095
1182,-0.105
1183,-0.145
1184,-0.115
1185,-0.185
1186,-0.195
1187,-0.195
1188,-0.205
1189,-0.135
1190,-0.105
1191,-0.135
1192,-0.105
1193,-0.135
1194,-0.135
1195,-0.155
1196,-0.135
1197,-0.125
1198,-0.135
1199,-0.185
1200,-0.165
1201,-0.125
1202,-0.145
1203,-0.115
1204,-0.125
1205,-0.165
1206,-0.125
1207,-0.155
1208,-0.145
1209,-0.165
1210,-0.145
1211,-0.135
1212,-0.155
1213,-0.155
1214,-0.175
1215,-0.145
1216,-0.175
1217,-0.145
1218,-0.095
1219,-0.055
1220,-0.085
1221,-0.055
1222,0.055
1223,-0.045
1224,-0.075
1225,-0.105
1226,-0.105
1227,-0.135
1228,-0.195
1229,-0.195
1230,-0.205
1231,-0.185
1232,-0.195
1233,-0.205
1234,-0.195
1235,-0.175
1236,-0.565
1237,-0.735
1238,0.045
1239,1.855
1240,2.745
1241,2.595
1242,1.645
1243,0.085
1244,-0.305
1245,-0.275
1246,-0.285
1247,-0.335
1248,-0.355
1249,-0.355
1250,-0.335
1251,-0.355
1252,-0.315
1253,-0.295
1254,-0.275
1255,-0.235
1256,-0.235
1257,-0.225
1258,-0.205
1259,-0.185
1260,-0.185
1261,-0.165
1262,-0.125
1263,-0.135
1264,-0.135
1265,-0.145
1266,-0.145
1267,-0.175
1268,-0.205
1269,-0.185
1270,-0.205
1271,-0.125
1272,-0.105
1273,-0.115
1274,-0.095
1275,-0.125
1276,-0.115
1277,-0.135
1278,-0.155
1279,-0.155
1280,-0.165
1281,-0.145
1282,-0.125
1283,-0.145
1284,-0.155
1285,-0.165
1286,-0.145
1287,-0.185
1288,-0.155
1289,-0.135
1290,-0.145
1291,-0.135
1292,-0.145
1293,-0.165
1294,-0.165
1295,-0.165
1296,-0.135
1297,-0.145
1298,-0.175
1299,-0.165
1300,-0.125
1301,-0.135
1302,-0.155
1303,-0.095
1304,-0.055
1305,0.025
1306,-0.015
1307,-0.095
1308,-0.135
1309,-0.085
1310,-0.135
1311,-0.145
1312,-0.195
1313,-0.215
1314,-0.255
1315,-0.235
1316,-0.185
1317,-0.205
1318,-0.215
1319,-0.645
1320,-0.725
1321,0.095
1322,1.815
1323,2.635
1324,2.475
1325,1.575
1326,-0.035
1327,-0.395
1328,-0.325
1329,-0.325
1330,-0.335
1331,-0.345
1332,-0.355
1333,-0.365
1334,-0.355
1335,-0.335
1336,-0.295
1337,-0.295
1338,-0.295
1339,-0.265
1340,-0.235
1341,-0.235
1342,-0.215
1343,-0.205
1344,-0.205
1345,-0.205
1346,-0.175
1347,-0.155
1348,-0.185
1349,-0.205
1350,-0.205
1351,-0.235
1352,-0.215
1353,-0.215
1354,-0.145
1355,-0.145
1356,-0.125
1357,-0.165
1358,-0.155
1359,-0.195
1360,-0.195
1361,-0.215
1362,-0.165
1363,-0.215
1364,-0.195
1365,-0.185
1366,-0.155
1367,-0.175
1368,-0.175
1369,-0.215
1370,-0.185
1371,-0.195
1372,-0.195
1373,-0.215
1374,-0.205
1375,-0.155
1376,-0.155
1377,-0.215
1378,-0.235
1379,-0.205
1380,-0.195
1381,-0.185
1382,-0.175
1383,-0.135
1384,-0.105
1385,-0.155
1386,-0.095
1387,0.005
1388,-0.085
1389,-0.095
1390,-0.135
1391,-0.125
1392,-0.175
1393,-0.205
1394,-0.215
1395,-0.255
1396,-0.265
1397,-0.275
1398,-0.215
1399,-0.225
1400,-0.195
1401,-0.645
1402,-0.755
1403,0.105
1404,1.695
1405,2.675
1406,2.645
1407,2.185
1408,0.435
1409,-0.365
1410,-0.295
1411,-0.375
1412,-0.375
1413,-0.355
1414,-0.355
1415,-0.395
1416,-0.365
1417,-0.325
1418,-0.295
1419,-0.295
1420,-0.285
1421,-0.275
1422,-0.245
1423,-0.255
1424,-0.205
1425,-0.225
1426,-0.215
1427,-0.155
1428,-0.135
1429,-0.155
1430,-0.165
1431,-0.175
1432,-0.205
1433,-0.205
1434,-0.245
1435,-0.215
1436,-0.215
1437,-0.175
1438,-0.135
1439,-0.135
1440,-0.145
1441,-0.145
1442,-0.185
1443,-0.195
1444,-0.195
1445,-0.165
1446,-0.175
1447,-0.175
1448,-0.185
1449,-0.215
1450,-0.165
1451,-0.155
1452,-0.175
1453,-0.205
1454,-0.175
1455,-0.175
1456,-0.155
1457,-0.175
1458,-0.185
1459,-0.195
1460,-0.175
1461,-0.175
1462,-0.205
1463,-0.145
1464,-0.105
1465,-0.105
1466,-0.115
1467,-0.015
1468,-0.025
1469,-0.095
1470,-0.125
1471,-0.145
1472,-0.165
1473,-0.195
1474,-0.175
1475,-0.225
1476,-0.225
1477,-0.235
1478,-0.235
1479,-0.225
1480,-0.205
1481,-0.465
1482,-0.885
1483,-0.295
1484,1.335
1485,2.625
1486,2.755
1487,2.255
1488,0.485
1489,-0.325
1490,-0.255
1491,-0.285
1492,-0.335
1493,-0.375
1494,-0.415
1495,-0.375
1496,-0.345
1497,-0.335
1498,-0.355
1499,-0.315
1500,-0.265
1501,-0.245
1502,-0.225
1503,-0.215
1504,-0.235
1505,-0.185
1506,-0.165
1507,-0.165
1508,-0.135
1509,-0.145
1510,-0.145
1511,-0.165
1512,-0.195
1513,-0.225
1514,-0.235
1515,-0.235
1516,-0.215
1517,-0.205
1518,-0.185
1519,-0.175
1520,-0.125
1521,-0.165
1522,-0.185
1523,-0.205
1524,-0.185
1525,-0.175
1526,-0.185
1527,-0.165
1528,-0.185
1529,-0.165
1530,-0.175
1531,-0.165
1532,-0.155
1533,-0.165
1534,-0.135
1535,-0.185
1536,-0.165
1537,-0.165
1538,-0.145
1539,-0.125
1540,-0.165
1541,-0.175
1542,-0.195
1543,-0.145
1544,-0.125
1545,-0.085
1546,-0.105
1547,-0.085
1548,0.005
1549,-0.005
1550,-0.045
1551,-0.085
1552,-0.135
1553,-0.125
1554,-0.135
1555,-0.155
1556,-0.235
1557,-0.255
1558,-0.215
1559,-0.195
1560,-0.205
1561,-0.195
1562,-0.325
1563,-0.765
1564,-0.545
1565,0.825
1566,2.475
1567,2.855
1568,2.355
1569,0.785
1570,-0.235
1571,-0.275
1572,-0.295
1573,-0.335
1574,-0.365
1575,-0.375
1576,-0.355
1577,-0.355
1578,-0.305
1579,-0.285
1580,-0.275
1581,-0.265
1582,-0.255
1583,-0.225
1584,-0.215
1585,-0.155
1586,-0.155
1587,-0.115
1588,-0.115
1589,-0.125
1590,-0.095
1591,-0.085
1592,-0.125
1593,-0.125
1594,-0.135
1595,-0.175
1596,-0.155
1597,-0.115
1598,-0.095
1599,-0.085
1600,-0.115
1601,-0.095
1602,-0.105
1603,-0.125
1604,-0.125
1605,-0.185
1606,-0.115
1607,-0.105
1608,-0.115
1609,-0.115
1610,-0.145
1611,-0.115
1612,-0.115
1613,-0.115
1614,-0.145
1615,-0.125
1616,-0.105
1617,-0.115
1618,-0.135
1619,-0.185
1620,-0.125
1621,-0.115
1622,-0.105
1623,-0.185
1624,-0.055
1625,-0.045
1626,-0.075
1627,-0.035
1628,0.055
1629,0.025
1630,-0.035
1631,-0.115
1632,-0.115
1633,-0.135
1634,-0.105
1635,-0.155
1636,-0.215
1637,-0.225
1638,-0.215
1639,-0.175
1640,-0.145
1641,-0.155
1642,-0.675
1643,-0.785
1644,0.045
1645,1.695
1646,2.735
1647,2.635
1648,2.155
1649,0.425
1650,-0.415
1651,-0.345
1652,-0.305
1653,-0.345
1654,-0.355
1655,-0.355
1656,-0.365
1657,-0.325
1658,-0.305
1659,-0.305
1660,-0.305
1661,-0.285
1662,-0.255
1663,-0.255
1664,-0.275
1665,-0.195
1666,-0.195
1667,-0.155
1668,-0.165
1669,-0.165
1670,-0.175
1671,-0.175
1672,-0.205
1673,-0.225
1674,-0.215
1675,-0.235
1676,-0.205
1677,-0.165
1678,-0.165
1679,-0.135
1680,-0.165
1681,-0.155
1682,-0.125
1683,-0.125
1684,-0.185
1685,-0.225
1686,-0.175
1687,-0.165
1688,-0.185
1689,-0.185
1690,-0.195
1691,-0.185
1692,-0.195
1693,-0.145
1694,-0.175
1695,-0.205
1696,-0.155
1697,-0.145
1698,-0.205
1699,-0.175
1700,-0.165
1701,-0.215
1702,-0.175
1703,-0.165
1704,-0.105
1705,-0.135
1706,-0.095
1707,0.025
1708,-0.035
1709,-0.095
1710,-0.105
1711,-0.155
1712,-0.145
1713,-0.175
1714,-0.205
1715,-0.215
1716,-0.245
1717,-0.215
1718,-0.235
1719,-0.195
1720,-0.205
1721,-0.325
1722,-0.885
1723,-0.635
1724,0.665
1725,2.325
1726,2.855
1727,2.585
1728,1.305
1729,-0.105
1730,-0.345
1731,-0.275
1732,-0.325
1733,-0.385
1734,-0.405
1735,-0.375
1736,-0.365
1737,-0.355
1738,-0.285
1739,-0.285
1740,-0.285
1741,-0.285
1742,-0.265
1743,-0.225
1744,-0.235
1745,-0.195
1746,-0.195
1747,-0.185
1748,-0.115
1749,-0.135
1750,-0.145
1751,-0.195
1752,-0.185
1753,-0.295
1754,-0.275
1755,-0.235
1756,-0.265
1757,-0.255
1758,-0.175
1759,-0.125
1760,-0.145
1761,-0.155
1762,-0.155
1763,-0.145
1764,-0.195
1765,-0.185
1766,-0.205
1767,-0.185
1768,-0.245
1769,-0.215
1770,-0.175
1771,-0.185
1772,-0.155
1773,-0.175
1774,-0.175
1775,-0.165
1776,-0.175
1777,-0.185
1778,-0.185
1779,-0.185
1780,-0.195
1781,-0.195
1782,-0.185
1783,-0.125
1784,-0.125
1785,-0.175
1786,-0.065
1787,-0.005
1788,-0.105
1789,-0.145
1790,-0.165
1791,-0.155
1792,-0.195
1793,-0.225
1794,-0.245
1795,-0.275
1796,-0.285
1797,-0.265
1798,-0.265
1799,-0.195
1800,-0.445
1801,-0.905
1802,-0.425
1803,1.225
1804,2.635
1805,2.955
1806,2.415
1807,0.705
1808,-0.275
1809,-0.315
1810,-0.325
1811,-0.365
1812,-0.415
1813,-0.405
1814,-0.405
1815,-0.395
1816,-0.335
1817,-0.335
1818,-0.365
1819,-0.325
1820,-0.265
1821,-0.295
1822,-0.255
1823,-0.205
1824,-0.175
1825,-0.205
1826,-0.165
1827,-0.145
1828,-0.165
1829,-0.175
1830,-0.185
1831,-0.205
1832,-0.235
1833,-0.245
1834,-0.225
1835,-0.215
1836,-0.235
1837,-0.155
1838,-0.135
1839,-0.135
1840,-0.165
1841,-0.175
1842,-0.185
1843,-0.175
1844,-0.185
1845,-0.205
1846,-0.155
1847,-0.155
1848,-0.155
1849,-0.175
1850,-0.175
1851,-0.145
1852,-0.135
1853,-0.135
1854,-0.135
1855,-0.115
1856,-0.155
1857,-0.125
1858,-0.135
1859,-0.155
1860,-0.135
1861,-0.125
1862,-0.105
1863,-0.065
1864,-0.055
1865,-0.075
1866,-0.005
1867,-0.005
1868,-0.035
1869,-0.075
1870,-0.095
1871,-0.095
1872,-0.135
1873,-0.125
1874,-0.155
1875,-0.175
1876,-0.165
1877,-0.175
1878,-0.155
1879,-0.125
1880,-0.185
1881,-0.655
1882,-0.605
1883,0.505
1884,1.815
1885,2.175
1886,1.925
1887,0.775
1888,-0.125
1889,-0.225
1890,-0.215
1891,-0.255
1892,-0.315
1893,-0.335
1894,-0.315
1895,-0.305
1896,-0.315
1897,-0.295
1898,-0.285
1899,-0.285
1900,-0.215
1901,-0.205
1902,-0.195
1903,-0.215
1904,-0.205
1905,-0.165
1906,-0.175
1907,-0.125
1908,-0.155
1909,-0.195
1910,-0.185
1911,-0.185
1912,-0.145
1913,-0.185
1914,-0.175
1915,-0.125
1916,-0.115
1917,-0.125
1918,-0.115
1919,-0.135
1920,-0.165
1921,-0.175
1922,-0.165
1923,-0.145
1924,-0.195
1925,-0.215
1926,-0.195
1927,-0.175
1928,-0.155
1929,-0.205
1930,-0.165
1931,-0.155
1932,-0.165
1933,-0.165
1934,-0.185
1935,-0.155
1936,-0.175
1937,-0.175
1938,-0.215
1939,-0.175
1940,-0.155
1941,-0.165
1942,-0.125
1943,-0.115
1944,-0.055
1945,0.025
1946,-0.045
1947,-0.135
1948,-0.155
1949,-0.145
1950,-0.255
1951,-0.165
1952,-0.195
1953,-0.245
1954,-0.245
1955,-0.235
1956,-0.255
1957,-0.225
1958,-0.235
1959,-0.825
1960,-0.755
1961,0.335
1962,1.975
1963,2.725
1964,2.485
1965,1.745
1966,0.045
1967,-0.445
1968,-0.325
1969,-0.345
1970,-0.375
1971,-0.385
1972,-0.395
1973,-0.375
1974,-0.345
1975,-0.325
1976,-0.335
1977,-0.315
1978,-0.285
1979,-0.255
1980,-0.275
1981,-0.275
1982,-0.225
1983,-0.205
1984,-0.225
1985,-0.215
1986,-0.195
1987,-0.175
1988,-0.195
1989,-0.245
1990,-0.225
1991,-0.245
1992,-0.235
1993,-0.215
1994,-0.155
1995,-0.135
1996,-0.155
1997,-0.155
1998,-0.125
1999,-0.175
2000,-0.195
2001,-0.175
2002,-0.175
2003,-0.175
2004,-0.175
2005,-0.215
2006,-0.185
2007,-0.155
2008,-0.195
2009,-0.175
2010,-0.175
2011,-0.185
2012,-0.155
2013,-0.205
2014,-0.185
2015,-0.175
2016,-0.145
2017,-0.225
2018,-0.165
2019,-0.105
2020,-0.125
2021,-0.125
2022,-0.045
2023,-0.015
2024,-0.045
2025,-0.085
2026,-0.185
2027,-0.175
2028,-0.165
2029,-0.175
2030,-0.215
2031,-0.225
2032,-0.235
2033,-0.235
2034,-0.235
2035,-0.205
2036,-0.305
2037,-0.925
2038,-0.745
2039,0.525
2040,2.195
2041,2.775
2042,2.555
2043,1.315
2044,-0.105
2045,-0.325
2046,-0.265
2047,-0.315
2048,-0.365
2049,-0.385
2050,-0.385
2051,-0.345
2052,-0.375
2053,-0.345
2054,-0.315
2055,-0.315
2056,-0.335
2057,-0.255
2058,-0.235
2059,-0.215
2060,-0.215
2061,-0.195
2062,-0.175
2063,-0.165
2064,-0.185
2065,-0.165
2066,-0.175
2067,-0.225
2068,-0.255
2069,-0.255
2070,-0.255
2071,-0.255
2072,-0.225
2073,-0.215
2074,-0.185
2075,-0.185
2076,-0.175
2077,-0.155
2078,-0.185
2079,-0.175
2080,-0.185
2081,-0.245
2082,-0.195
2083,-0.175
2084,-0.185
2085,-0.175
2086,-0.185
2087,-0.175
2088,-0.205
2089,-0.215
2090,-0.175
2091,-0.165
2092,-0.155
2093,-0.175
2094,-0.175
2095,-0.195
2096,-0.185
2097,-0.125
2098,-0.115
2099,-0.115
2100,-0.115
2101,0.005
2102,-0.035
2103,-0.105
2104,-0.135
2105,-0.155
2106,-0.165
2107,-0.195
2108,-0.245
2109,-0.225
2110,-0.235
2111,-0.285
2112,-0.225
2113,-0.205
2114,-0.215
2115,-0.735
2116,-0.835
2117,0.075
2118,1.785
2119,2.745
2120,2.605
2121,1.675
2122,0.135
2123,-0.315
2124,-0.285
2125,-0.365
2126,-0.375
2127,-0.355
2128,-0.375
2129,-0.375
2130,-0.385
2131,-0.335
2132,-0.335
2133,-0.305
2134,-0.295
2135,-0.255
2136,-0.225
2137,-0.225
2138,-0.205
2139,-0.185
2140,-0.175
2141,-0.165
2142,-0.145
2143,-0.175
2144,-0.155
2145,-0.175
2146,-0.235
2147,-0.225
2148,-0.205
2149,-0.225
2150,-0.215
2151,-0.165
2152,-0.155
2153,-0.155
2154,-0.205
2155,-0.125
2156,-0.175
2157,-0.165
2158,-0.185
2159,-0.155
2160,-0.155
2161,-0.165
2162,-0.175
2163,-0.155
2164,-0.165
2165,-0.175
2166,-0.145
2167,-0.145
2168,-0.155
2169,-0.165
2170,-0.135
2171,-0.165
2172,-0.175
2173,-0.135
2174,-0.145
2175,-0.165
2176,-0.125
2177,-0.105
2178,-0.085
2179,-0.085
2180,-0.085
2181,0.035
2182,0.025
2183,-0.045
2184,-0.095
2185,-0.115
2186,-0.115
2187,-0.135
2188,-0.155
2189,-0.205
2190,-0.215
2191,-0.195
2192,-0.195
2193,-0.195
2194,-0.175
2195,-0.325
2196,-0.845
2197,-0.585
2198,1.055
2199,2.595
2200,2.755
2201,2.315
2202,0.725
2203,-0.265
2204,-0.265
2205,-0.315
2206,-0.305
2207,-0.305
2208,-0.375
2209,-0.325
2210,-0.305
2211,-0.315
2212,-0.265
2213,-0.275
2214,-0.265
2215,-0.245
2216,-0.235
2217,-0.175
2218,-0.145
2219,-0.135
2220,-0.125
2221,-0.115
2222,-0.125
2223,-0.135
2224,-0.105
2225,-0.125
2226,-0.145
2227,-0.175
2228,-0.175
2229,-0.155
2230,-0.105
2231,-0.095
2232,-0.065
2233,-0.065
2234,-0.095
2235,-0.095
2236,-0.125
2237,-0.095
2238,-0.125
2239,-0.085
2240,-0.125
2241,-0.115
2242,-0.125
2243,-0.105
2244,-0.105
2245,-0.095
2246,-0.115
2247,-0.085
2248,-0.115
2249,-0.155
2250,-0.115
2251,-0.105
2252,-0.095
2253,-0.105
2254,-0.095
2255,-0.105
2256,-0.115
2257,-0.095
2258,-0.065
2259,-0.045
2260,-0.065
2261,0.005
2262,0.025
2263,-0.005
2264,-0.045
2265,-0.105
2266,-0.095
2267,-0.145
2268,-0.155
2269,-0.165
2270,-0.185
2271,-0.195
2272,-0.205
2273,-0.225
2274,-0.205
2275,-0.225
2276,-0.765
2277,-0.655
2278,0.475
2279,2.165
2280,2.655
2281,2.465
2282,1.485
2283,-0.055
2284,-0.405
2285,-0.275
2286,-0.315
2287,-0.345
2288,-0.345
2289,-0.375
2290,-0.365
2291,-0.355
2292,-0.355
2293,-0.315
2294,-0.285
2295,-0.245
2296,-0.225
2297,-0.215
2298,-0.255
2299,-0.215
2300,-0.175
2301,-0.185
2302,-0.165
2303,-0.145
2304,-0.175
2305,-0.195
2306,-0.195
2307,-0.215
2308,-0.205
2309,-0.195
2310,-0.175
2311,-0.135
2312,-0.125
2313,-0.095
2314,-0.105
2315,-0.125
2316,-0.155
2317,-0.115
2318,-0.125
2319,-0.135
2320,-0.155
2321,-0.145
2322,-0.145
2323,-0.125
2324,-0.135
2325,-0.125
2326,-0.115
2327,-0.115
2328,-0.145
2329,-0.135
2330,-0.115
2331,-0.115
2332,-0.125
2333,-0.145
2334,-0.135
2335,-0.135
2336,-0.165
2337,-0.135
2338,-0.125
2339,-0.075
2340,-0.085
2341,-0.015
2342,0.005
2343,-0.055
2344,-0.075
2345,-0.095
2346,-0.135
2347,-0.155
2348,-0.165
2349,-0.185
2350,-0.225
2351,-0.225
2352,-0.225
2353,-0.225
2354,-0.205
2355,-0.195
2356,-0.755
2357,-0.735
2358,0.355
2359,2.085
2360,2.825
2361,2.655
2362,1.615
2363,-0.045
2364,-0.365
2365,-0.295
2366,-0.305
2367,-0.345
2368,-0.365
2369,-0.355
2370,-0.335
2371,-0.315
2372,-0.305
2373,-0.325
2374,-0.265
2375,-0.245
2376,-0.245
2377,-0.215
2378,-0.165
2379,-0.185
2380,-0.185
2381,-0.125
2382,-0.145
2383,-0.155
2384,-0.135
2385,-0.155
2386,-0.185
2387,-0.155
2388,-0.215
2389,-0.235
2390,-0.215
2391,-0.155
2392,-0.145
2393,-0.125
2394,-0.125
2395,-0.115
2396,-0.155
2397,-0.135
2398,-0.125
2399,-0.155
2400,-0.155
2401,-0.125
2402,-0.125
2403,-0.145
2404,-0.125
2405,-0.155
2406,-0.145
2407,-0.125
2408,-0.145
2409,-0.135
2410,-0.085
2411,-0.105
2412,-0.175
2413,-0.125
2414,-0.085
2415,-0.135
2416,-0.155
2417,-0.125
2418,-0.105
2419,-0.065
2420,-0.055
2421,-0.095
2422,-0.025
2423,0.055
2424,-0.035
2425,-0.035
2426,-0.065
2427,-0.085
2428,-0.105
2429,-0.135
2430,-0.185
2431,-0.175
2432,-0.185
2433,-0.215
2434,-0.185
2435,-0.145
2436,-0.135
2437,-0.675
2438,-0.745
2439,0.215
2440,1.955
2441,2.835
2442,2.625
2443,1.495
2444,-0.035
2445,-0.275
2446,-0.275
2447,-0.245
2448,-0.325
2449,-0.315
2450,-0.325
2451,-0.315
2452,-0.295
2453,-0.245
2454,-0.275
2455,-0.265
2456,-0.215
2457,-0.205
2458,-0.185
2459,-0.165
2460,-0.135
2461,-0.125
2462,-0.125
2463,-0.065
2464,-0.085
2465,-0.115
2466,-0.085
2467,-0.145
2468,-0.155
2469,-0.165
2470,-0.185
2471,-0.155
2472,-0.145
2473,-0.135
2474,-0.125
2475,-0.105
2476,-0.105
2477,-0.125
2478,-0.135
2479,-0.095
2480,-0.135
2481,-0.155
2482,-0.135
2483,-0.105
2484,-0.135
2485,-0.095
2486,-0.125
2487,-0.105
2488,-0.115
2489,-0.115
2490,-0.095
2491,-0.105
2492,-0.135
2493,-0.085
2494,-0.105
2495,-0.115
2496,-0.115
2497,-0.115
2498,-0.105
2499,-0.125
2500,-0.125
2501,-0.105
2502,-0.065
2503,-0.025
2504,-0.075
2505,-0.045
2506,0.045
2507,0.025
2508,-0.025
2509,-0.075
2510,-0.085
2511,-0.085
2512,-0.105
2513,-0.165
2514,-0.165
2515,-0.165
2516,-0.185
2517,-0.185
2518,-0.145
2519,-0.125
2520,-0.535
2521,-0.705
2522,-0.015
2523,1.785
2524,2.745
2525,2.605
2526,1.695
2527,0.165
2528,-0.305
2529,-0.255
2530,-0.265
2531,-0.315
2532,-0.345
2533,-0.315
2534,-0.325
2535,-0.285
2536,-0.305
2537,-0.285
2538,-0.255
2539,-0.245
2540,-0.225
2541,-0.185
2542,-0.175
2543,-0.175
2544,-0.135
2545,-0.135
2546,-0.125
2547,-0.095
2548,-0.105
2549,-0.105
2550,-0.125
2551,-0.145
2552,-0.195
2553,-0.155
2554,-0.175
2555,-0.135
2556,-0.135
2557,-0.135
2558,-0.105
2559,-0.125
2560,-0.115
2561,-0.135
2562,-0.155
2563,-0.135
2564,-0.135
2565,-0.175
2566,-0.155
2567,-0.145
2568,-0.135
2569,-0.155
2570,-0.135
2571,-0.105
2572,-0.125
2573,-0.115
2574,-0.125
2575,-0.125
2576,-0.115
2577,-0.105
2578,-0.115
2579,-0.115
2580,-0.135
2581,-0.135
2582,-0.115
2583,-0.125
2584,-0.125
2585,-0.135
2586,-0.075
2587,-0.065
2588,-0.045
2589,-0.005
2590,0.045
2591,0.005
2592,-0.055
2593,-0.085
2594,-0.085
2595,-0.075
2596,-0.115
2597,-0.155
2598,-0.155
2599,-0.145
2600,-0.145
2601,-0.165
2602,-0.165
2603,-0.115
2604,-0.525
2605,-0.675
2606,-0.035
2607,1.635
2608,2.615
2609,2.515
2610,1.975
2611,0.455
2612,-0.265
2613,-0.225
2614,-0.245
2615,-0.285
2616,-0.305
2617,-0.295
2618,-0.335
2619,-0.255
2620,-0.235
2621,-0.225
2622,-0.235
2623,-0.215
2624,-0.215
2625,-0.175
2626,-0.145
2627,-0.155
2628,-0.095
2629,-0.085
2630,-0.125
2631,-0.105
2632,-0.085
2633,-0.075
2634,-0.105
2635,-0.105
2636,-0.135
2637,-0.155
2638,-0.135
2639,-0.095
2640,-0.065
2641,-0.065
2642,-0.055
2643,-0.055
2644,-0.135
2645,-0.135
2646,-0.125
2647,-0.105
2648,-0.125
2649,-0.115
2650,-0.085
2651,-0.085
2652,-0.115
2653,-0.135
2654,-0.115
2655,-0.075
2656,-0.125
2657,-0.115
2658,-0.065
2659,-0.085
2660,-0.125
2661,-0.105
2662,-0.115
2663,-0.075
2664,-0.095
2665,-0.135
2666,-0.115
2667,-0.105
2668,-0.115
2669,-0.125
2670,-0.135
2671,-0.045
2672,-0.065
2673,-0.055
2674,-0.015
2675,0.075
2676,0.025
2677,-0.045
2678,-0.085
2679,-0.065
2680,-0.085
2681,-0.065
2682,-0.105
2683,-0.155
2684,-0.165
2685,-0.165
2686,-0.185
2687,-0.135
2688,-0.095
2689,-0.625
2690,-0.715
2691,0.305
2692,1.975
2693,2.735
2694,2.575
2695,1.745
2696,0.065
2697,-0.385
2698,-0.285
2699,-0.235
2700,-0.325
2701,-0.325
2702,-0.305
2703,-0.335
2704,-0.295
2705,-0.295
2706,-0.255
2707,-0.245
2708,-0.225
2709,-0.235
2710,-0.205
2711,-0.155
2712,-0.145
2713,-0.125
2714,-0.135
2715,-0.105
2716,-0.115
2717,-0.145
2718,-0.125
2719,-0.205
2720,-0.155
2721,-0.155
2722,-0.145
2723,-0.135
2724,-0.125
2725,-0.095
2726,-0.085
2727,-0.075
2728,-0.105
2729,-0.125
2730,-0.115
2731,-0.155
2732,-0.135
2733,-0.155
2734,-0.105
2735,-0.125
2736,-0.135
2737,-0.125
2738,-0.115
2739,-0.125
2740,-0.105
2741,-0.135
2742,-0.115
2743,-0.145
2744,-0.125
2745,-0.125
2746,-0.115
2747,-0.095
2748,-0.125
2749,-0.115
2750,-0.135
2751,-0.145
2752,-0.155
2753,-0.155
2754,-0.075
2755,-0.075
2756,-0.065
2757,-0.015
2758,0.045
2759,-0.015
2760,-0.085
2761,-0.065
2762,-0.065
2763,-0.115
2764,-0.135
2765,-0.175
2766,-0.205
2767,-0.225
2768,-0.205
2769,-0.165
2770,-0.115
2771,-0.145
2772,-0.725
2773,-0.665
2774,0.425
2775,2.075
2776,2.805
2777,2.655
2778,1.885
2779,0.215
2780,-0.375
2781,-0.255
2782,-0.255
2783,-0.285
2784,-0.335
2785,-0.355
2786,-0.325
2787,-0.295
2788,-0.325
2789,-0.295
2790,-0.265
2791,-0.215
2792,-0.225
2793,-0.225
2794,-0.185
2795,-0.185
2796,-0.135
2797,-0.115
2798,-0.115
2799,-0.115
2800,-0.125
2801,-0.145
2802,-0.125
2803,-0.085
2804,-0.185
2805,-0.185
2806,-0.175
2807,-0.155
2808,-0.155
2809,-0.095
2810,-0.115
2811,-0.135
2812,-0.125
2813,-0.125
2814,-0.145
2815,-0.135
2816,-0.155
2817,-0.115
2818,-0.155
2819,-0.135
2820,-0.125
2821,-0.145
2822,-0.125
2823,-0.125
2824,-0.125
2825,-0.135
2826,-0.135
2827,-0.125
2828,-0.095
2829,-0.165
2830,-0.125
2831,-0.105
2832,-0.115
2833,-0.135
2834,-0.145
2835,-0.155
2836,-0.165
2837,-0.105
2838,-0.075
2839,-0.065
2840,-0.035
2841,0.045
2842,-0.035
2843,-0.065
2844,-0.075
2845,-0.115
2846,-0.135
2847,-0.105
2848,-0.175
2849,-0.245
2850,-0.225
2851,-0.185
2852,-0.185
2853,-0.185
2854,-0.145
2855,-0.645
2856,-0.775
2857,0.215
2858,1.945
2859,2.815
2860,2.605
2861,1.545
2862,-0.015
2863,-0.285
2864,-0.275
2865,-0.325
2866,-0.335
2867,-0.385
2868,-0.375
2869,-0.355
2870,-0.335
2871,-0.335
2872,-0.325
2873,-0.275
2874,-0.275
2875,-0.245
2876,-0.215
2877,-0.235
2878,-0.215
2879,-0.155
2880,-0.155
2881,-0.135
2882,-0.145
2883,-0.125
2884,-0.135
2885,-0.125
2886,-0.195
2887,-0.165
2888,-0.195
2889,-0.175
2890,-0.195
2891,-0.185
2892,-0.125
2893,-0.145
2894,-0.155
2895,-0.165
2896,-0.145
2897,-0.195
2898,-0.175
2899,-0.185
2900,-0.165
2901,-0.185
2902,-0.165
2903,-0.175
2904,-0.175
2905,-0.155
2906,-0.135
2907,-0.155
2908,-0.155
2909,-0.155
2910,-0.155
2911,-0.115
2912,-0.145
2913,-0.145
2914,-0.155
2915,-0.155
2916,-0.155
2917,-0.145
2918,-0.145
2919,-0.145
2920,-0.135
2921,-0.105
2922,-0.095
2923,-0.085
2924,-0.065
2925,-0.025
2926,-0.015
2927,-0.055
2928,-0.085
2929,-0.095
2930,-0.115
2931,-0.115
2932,-0.145
2933,-0.175
2934,-0.155
2935,-0.155
2936,-0.165
2937,-0.145
2938,-0.145
2939,-0.215
2940,-0.295
2941,0.065
2942,0.965
2943,1.805
2944,2.005
2945,1.645
2946,0.805
2947,0.095
2948,-0.125
2949,-0.205
2950,-0.255
2951,-0.275
2952,-0.315
2953,-0.315
2954,-0.305
2955,-0.285
2956,-0.285
2957,-0.285
2958,-0.245
2959,-0.245
2960,-0.225
2961,-0.205
2962,-0.195
2963,-0.165
2964,-0.145
2965,-0.105
2966,-0.115
2967,-0.115
2968,-0.105
2969,-0.135
2970,-0.135
2971,-0.155
2972,-0.185
2973,-0.175
2974,-0.165
2975,-0.125
2976,-0.135
2977,-0.135
2978,-0.105
2979,-0.135
2980,-0.195
2981,-0.175
2982,-0.205
2983,-0.155
2984,-0.135
2985,-0.155
2986,-0.175
2987,-0.165
2988,-0.155
2989,-0.145
2990,-0.165
2991,-0.135
2992,-0.125
2993,-0.135
2994,-0.145
2995,-0.135
2996,-0.135
2997,-0.155
2998,-0.135
2999,-0.145
3000,-0.125
3001,-0.155
3002,-0.175
3003,-0.145
3004,-0.155
3005,-0.165
3006,-0.165
3007,-0.165
3008,-0.115
3009,-0.105
3010,-0.085
3011,-0.065
3012,0.005
3013,0.035
3014,-0.025
3015,-0.065
3016,-0.105
3017,-0.085
3018,-0.105
3019,-0.125
3020,-0.165
3021,-0.165
3022,-0.185
3023,-0.185
3024,-0.175
3025,-0.145
3026,-0.175
3027,-0.495
3028,-0.555
3029,0.165
3030,1.555
3031,2.265
3032,2.205
3033,1.595
3034,0.355
3035,-0.175
3036,-0.215
3037,-0.225
3038,-0.285
3039,-0.295
3040,-0.315
3041,-0.305
3042,-0.305
3043,-0.285
3044,-0.265
3045,-0.275
3046,-0.245
3047,-0.215
3048,-0.205
3049,-0.195
3050,-0.165
3051,-0.155
3052,-0.165
3053,-0.135
3054,-0.115
3055,-0.105
3056,-0.135
3057,-0.135
3058,-0.125
3059,-0.175
3060,-0.135
3061,-0.145
3062,-0.125
3063,-0.125
3064,-0.095
3065,-0.075
3066,-0.135
3067,-0.185
3068,-0.115
3069,-0.145
3070,-0.155
3071,-0.145
3072,-0.145
3073,-0.165
3074,-0.175
3075,-0.175
3076,-0.165
3077,-0.165
3078,-0.175
3079,-0.125
3080,-0.155
3081,-0.155
3082,-0.185
3083,-0.165
3084,-0.185
3085,-0.175
3086,-0.175
3087,-0.175
3088,-0.195
3089,-0.185
3090,-0.125
3091,-0.155
3092,-0.165
3093,-0.115
3094,-0.095
3095,-0.115
3096,-0.065
3097,0.025
3098,-0.075
3099,-0.125
3100,-0.175
3101,-0.085
3102,-0.105
3103,-0.155
3104,-0.155
3105,-0.245
3106,-0.235
3107,-0.185
3108,-0.225
3109,-0.165
3110,-0.205
3111,-0.665
3112,-0.705
3113,0.445
3114,2.135
3115,2.795
3116,2.565
3117,1.515
3118,-0.125
3119,-0.415
3120,-0.315
3121,-0.335
3122,-0.345
3123,-0.365
3124,-0.315
3125,-0.295
3126,-0.295
3127,-0.265
3128,-0.255
3129,-0.265
3130,-0.255
3131,-0.225
3132,-0.175
3133,-0.175
3134,-0.175
3135,-0.145
3136,-0.155
3137,-0.115
3138,-0.095
3139,-0.105
3140,-0.115
3141,-0.115
3142,-0.155
3143,-0.145
3144,-0.165
3145,-0.195
3146,-0.105
3147,-0.075
3148,-0.075
3149,-0.125
3150,-0.125
3151,-0.135
3152,-0.145
3153,-0.175
3154,-0.175
3155,-0.185
3156,-0.185
3157,-0.145
3158,-0.135
3159,-0.175
3160,-0.155
3161,-0.145
3162,-0.175
3163,-0.135
3164,-0.125
3165,-0.165
3166,-0.165
3167,-0.125
3168,-0.135
3169,-0.135
3170,-0.165
3171,-0.145
3172,-0.145
3173,-0.145
3174,-0.145
3175,-0.125
3176,-0.095
3177,-0.075
3178,-0.045
3179,-0.015
3180,0.055
3181,-0.025
3182,-0.095
3183,-0.115
3184,-0.115
3185,-0.145
3186,-0.125
3187,-0.155
3188,-0.215
3189,-0.245
3190,-0.175
3191,-0.145
3192,-0.145
3193,-0.205
3194,-0.765
3195,-0.555
3196,0.705
3197,2.265
3198,2.845
3199,2.625
3200,1.335
3201,-0.145
3202,-0.335
3203,-0.235
3204,-0.275
3205,-0.335
3206,-0.345
3207,-0.335
3208,-0.315
3209,-0.315
3210,-0.305
3211,-0.265
3212,-0.265
3213,-0.255
3214,-0.225
3215,-0.195
3216,-0.185
3217,-0.155
3218,-0.125
3219,-0.095
3220,-0.085
3221,-0.055
3222,-0.105
3223,-0.105
3224,-0.115
3225,-0.105
3226,-0.145
3227,-0.145
3228,-0.145
3229,-0.115
3230,-0.125
3231,-0.095
3232,-0.105
3233,-0.145
3234,-0.115
3235,-0.105
3236,-0.135
3237,-0.145
3238,-0.145
3239,-0.165
3240,-0.105
3241,-0.145
3242,-0.115
3243,-0.105
3244,-0.125
3245,-0.155
3246,-0.105
3247,-0.085
3248,-0.115
3249,-0.135
3250,-0.115
3251,-0.095
3252,-0.095
3253,-0.125
3254,-0.155
3255,-0.105
3256,-0.115
3257,-0.095
3258,-0.045
3259,-0.005
3260,-0.095
3261,0.015
3262,0.045
3263,-0.005
3264,-0.065
3265,-0.115
3266,-0.065
3267,-0.085
3268,-0.155
3269,-0.175
3270,-0.195
3271,-0.175
3272,-0.185
3273,-0.185
3274,-0.135
3275,-0.235
3276,-0.715
3277,-0.565
3278,0.735
3279,2.375
3280,2.835
3281,2.505
3282,1.145
3283,-0.165
3284,-0.265
3285,-0.225
3286,-0.285
3287,-0.335
3288,-0.335
3289,-0.365
3290,-0.315
3291,-0.305
3292,-0.315
3293,-0.265
3294,-0.255
3295,-0.225
3296,-0.225
3297,-0.175
3298,-0.175
3299,-0.145
3300,-0.135
3301,-0.105
3302,-0.115
3303,-0.105
3304,-0.085
3305,-0.085
3306,-0.115
3307,-0.105
3308,-0.165
3309,-0.175
3310,-0.185
3311,-0.155
3312,-0.115
3313,-0.125
3314,-0.125
3315,-0.135
3316,-0.135
3317,-0.165
3318,-0.185
3319,-0.155
3320,-0.165
3321,-0.175
3322,-0.155
3323,-0.155
3324,-0.155
3325,-0.165
3326,-0.185
3327,-0.155
3328,-0.145
3329,-0.155
3330,-0.145
3331,-0.145
3332,-0.175
3333,-0.185
3334,-0.165
3335,-0.145
3336,-0.175
3337,-0.175
3338,-0.165
3339,-0.155
3340,-0.105
3341,-0.085
3342,-0.125
3343,-0.035
3344,-0.005
3345,-0.055
3346,-0.085
3347,-0.125
3348,-0.165
3349,-0.145
3350,-0.165
3351,-0.215
3352,-0.205
3353,-0.225
3354,-0.195
3355,-0.195
3356,-0.215
3357,-0.195
3358,-0.705
3359,-0.715
3360,0.165
3361,1.875
3362,2.715
3363,2.545
3364,1.585
3365,0.055
3366,-0.355
3367,-0.305
3368,-0.315
3369,-0.345
3370,-0.405
3371,-0.385
3372,-0.345
3373,-0.345
3374,-0.325
3375,-0.275
3376,-0.275
3377,-0.265
3378,-0.265
3379,-0.205
3380,-0.205
3381,-0.185
3382,-0.185
3383,-0.145
3384,-0.145
3385,-0.135
3386,-0.135
3387,-0.135
3388,-0.115
3389,-0.145
3390,-0.165
3391,-0.145
3392,-0.175
3393,-0.135
3394,-0.135
3395,-0.135
3396,-0.095
3397,-0.085
3398,-0.115
3399,-0.135
3400,-0.175
3401,-0.185
3402,-0.175
3403,-0.185
3404,-0.175
3405,-0.155
3406,-0.175
3407,-0.165
3408,-0.205
3409,-0.175
3410,-0.135
3411,-0.135
3412,-0.165
3413,-0.195
3414,-0.185
3415,-0.165
3416,-0.195
3417,-0.145
3418,-0.145
3419,-0.165
3420,-0.135
3421,-0.125
3422,-0.095
3423,-0.095
3424,-0.055
3425,0.015
3426,-0.025
3427,-0.105
3428,-0.135
3429,-0.125
3430,-0.155
3431,-0.185
3432,-0.205
3433,-0.245
3434,-0.205
3435,-0.205
3436,-0.215
3437,-0.195
3438,-0.175
3439,-0.645
3440,-0.775
3441,0.195
3442,1.945
3443,2.705
3444,2.505
3445,1.505
3446,-0.005
3447,-0.375
3448,-0.295
3449,-0.315
3450,-0.325
3451,-0.335
3452,-0.375
3453,-0.375
3454,-0.345
3455,-0.325
3456,-0.295
3457,-0.305
3458,-0.365
3459,-0.255
3460,-0.235
3461,-0.225
3462,-0.215
3463,-0.175
3464,-0.165
3465,-0.195
3466,-0.185
3467,-0.175
3468,-0.185
3469,-0.205
3470,-0.195
3471,-0.215
3472,-0.215
3473,-0.215
3474,-0.165
3475,-0.155
3476,-0.145
3477,-0.165
3478,-0.145
3479,-0.175
3480,-0.205
3481,-0.215
3482,-0.165
3483,-0.225
3484,-0.205
3485,-0.195
3486,-0.175
3487,-0.185
3488,-0.215
3489,-0.185
3490,-0.175
3491,-0.195
3492,-0.205
3493,-0.185
3494,-0.175
3495,-0.205
3496,-0.205
3497,-0.185
3498,-0.155
3499,-0.185
3500,-0.215
3501,-0.155
3502,-0.115
3503,-0.125
3504,-0.145
3505,-0.005
3506,-0.025
3507,-0.115
3508,-0.135
3509,-0.115
3510,-0.135
3511,-0.165
3512,-0.205
3513,-0.245
3514,-0.235
3515,-0.245
3516,-0.235
3517,-0.235
3518,-0.215
3519,-0.265
3520,-0.765
3521,-0.755
3522,0.225
3523,2.015
3524,2.825
3525,2.685
3526,1.685
3527,0.045
3528,-0.325
3529,-0.275
3530,-0.275
3531,-0.325
3532,-0.355
3533,-0.355
3534,-0.375
3535,-0.325
3536,-0.315
3537,-0.315
3538,-0.275
3539,-0.255
3540,-0.255
3541,-0.215
3542,-0.185
3543,-0.195
3544,-0.145
3545,-0.145
3546,-0.135
3547,-0.095
3548,-0.155
3549,-0.155
3550,-0.145
3551,-0.195
3552,-0.185
3553,-0.185
3554,-0.185
3555,-0.155
3556,-0.125
3557,-0.155
3558,-0.125
3559,-0.135
3560,-0.145
3561,-0.165
3562,-0.165
3563,-0.155
3564,-0.175
3565,-0.125
3566,-0.155
3567,-0.165
3568,-0.155
3569,-0.145
3570,-0.145
3571,-0.155
3572,-0.175
3573,-0.145
3574,-0.135
3575,-0.125
3576,-0.135
3577,-0.145
3578,-0.125
3579,-0.165
3580,-0.145
3581,-0.085
3582,-0.115
3583,-0.105
3584,-0.065
3585,0.065
3586,-0.015
3587,-0.095
3588,-0.155
3589,-0.115
3590,-0.125
3591,-0.185
3592,-0.195
3593,-0.235
3594,-0.225
3595,-0.225
3596,-0.225
3597,-0.205
3598,-0.195
3599,-0.685
3600,-0.825
3601,0.015
3602,1.785
3603,2.765
3604,2.745
3605,2.005
3606,0.375
3607,-0.285
3608,-0.285
3609,-0.325
3610,-0.365
3611,-0.355
3612,-0.365
3613,-0.345
3614,-0.335
3615,-0.305
3616,-0.305
3617,-0.325
3618,-0.295
3619,-0.245
3620,-0.225
3621,-0.205
3622,-0.165
3623,-0.145
3624,-0.155
3625,-0.135
3626,-0.105
3627,-0.115
3628,-0.125
3629,-0.145
3630,-0.155
3631,-0.165
3632,-0.175
3633,-0.195
3634,-0.145
3635,-0.165
3636,-0.135
3637,-0.145
3638,-0.155
3639,-0.145
3640,-0.165
3641,-0.165
3642,-0.155
3643,-0.155
3644,-0.185
3645,-0.185
3646,-0.165
3647,-0.145
3648,-0.135
3649,-0.145
3650,-0.135
3651,-0.125
3652,-0.155
3653,-0.195
3654,-0.115
3655,-0.135
3656,-0.155
3657,-0.135
3658,-0.165
3659,-0.155
3660,-0.165
3661,-0.095
3662,-0.065
3663,-0.085
3664,-0.075
3665,0.015
3666,0.055
3667,-0.075
3668,-0.125
3669,-0.115
3670,-0.115
3671,-0.145
3672,-0.175
3673,-0.215
3674,-0.235
3675,-0.225
3676,-0.225
3677,-0.195
3678,-0.165
3679,-0.235
3680,-0.805
3681,-0.715
3682,0.545
3683,2.325
3684,2.875
3685,2.535
3686,1.335
3687,-0.055
3688,-0.325
3689,-0.285
3690,-0.295
3691,-0.355
3692,-0.365
3693,-0.385
3694,-0.345
3695,-0.325
3696,-0.315
3697,-0.305
3698,-0.325
3699,-0.255
3700,-0.245
3701,-0.225
3702,-0.185
3703,-0.185
3704,-0.175
3705,-0.185
3706,-0.135
3707,-0.105
3708,-0.165
3709,-0.155
3710,-0.155
3711,-0.135
3712,-0.185
3713,-0.165
3714,-0.185
3715,-0.105
3716,-0.115
3717,-0.135
3718,-0.115
3719,-0.125
3720,-0.135
3721,-0.175
3722,-0.165
3723,-0.185
3724,-0.195
3725,-0.175
3726,-0.165
3727,-0.145
3728,-0.155
3729,-0.145
3730,-0.165
3731,-0.145
3732,-0.145
3733,-0.155
3734,-0.145
3735,-0.145
3736,-0.165
3737,-0.135
3738,-0.155
3739,-0.185
3740,-0.165
3741,-0.155
3742,-0.145
3743,-0.095
3744,-0.125
3745,-0.055
3746,0.045
3747,-0.035
3748,-0.105
3749,-0.165
3750,-0.165
3751,-0.165
3752,-0.135
3753,-0.205
3754,-0.215
3755,-0.235
3756,-0.215
3757,-0.235
3758,-0.225
3759,-0.295
3760,-0.855
3761,-0.575
3762,0.685
3763,2.325
3764,2.765
3765,2.575
3766,1.175
3767,-0.275
3768,-0.385
3769,-0.325
3770,-0.355
3771,-0.365
3772,-0.375
3773,-0.355
3774,-0.335
3775,-0.315
3776,-0.375
3777,-0.285
3778,-0.265
3779,-0.245
3780,-0.235
3781,-0.265
3782,-0.245
3783,-0.225
3784,-0.215
3785,-0.185
3786,-0.185
3787,-0.155
3788,-0.175
3789,-0.175
3790,-0.185
3791,-0.225
3792,-0.235
3793,-0.185
3794,-0.215
3795,-0.235
3796,-0.135
3797,-0.095
3798,-0.185
3799,-0.135
3800,-0.115
3801,-0.165
3802,-0.155
3803,-0.185
3804,-0.165
3805,-0.155
3806,-0.185
3807,-0.155
3808,-0.175
3809,-0.155
3810,-0.185
3811,-0.155
3812,-0.155
3813,-0.145
3814,-0.175
3815,-0.185
3816,-0.175
3817,-0.165
3818,-0.145
3819,-0.155
3820,-0.125
3821,-0.125
3822,-0.115
3823,-0.115
3824,-0.025
3825,0.005
3826,-0.045
3827,-0.085
3828,-0.105
3829,-0.135
3830,-0.175
3831,-0.135
3832,-0.195
3833,-0.225
3834,-0.205
3835,-0.255
3836,-0.155
3837,-0.175
3838,-0.285
3839,-0.835
3840,-0.565
3841,0.865
3842,2.475
3843,2.885
3844,2.485
3845,0.995
3846,-0.215
3847,-0.265
3848,-0.245
3849,-0.295
3850,-0.365
3851,-0.365
3852,-0.335
3853,-0.325
3854,-0.295
3855,-0.295
3856,-0.295
3857,-0.285
3858,-0.265
3859,-0.225
3860,-0.185
3861,-0.195
3862,-0.175
3863,-0.125
3864,-0.115
3865,-0.105
3866,-0.095
3867,-0.105
3868,-0.105
3869,-0.135
3870,-0.155
3871,-0.165
3872,-0.155
3873,-0.155
3874,-0.135
3875,-0.115
3876,-0.145
3877,-0.155
3878,-0.105
3879,-0.125
3880,-0.175
3881,-0.175
3882,-0.165
3883,-0.165
3884,-0.145
3885,-0.155
3886,-0.145
3887,-0.145
3888,-0.185
3889,-0.155
3890,-0.165
3891,-0.145
3892,-0.125
3893,-0.165
3894,-0.155
3895,-0.145
3896,-0.175
3897,-0.135
3898,-0.175
3899,-0.155
3900,-0.125
3901,-0.105
3902,-0.095
3903,-0.035
3904,0.065
3905,-0.035
3906,-0.065
3907,-0.105
3908,-0.125
3909,-0.135
3910,-0.135
3911,-0.195
3912,-0.195
3913,-0.215
3914,-0.205
3915,-0.195
3916,-0.185
3917,-0.185
3918,-0.725
3919,-0.815
3920,0.075
3921,1.815
3922,2.745
3923,2.685
3924,1.935
3925,0.305
3926,-0.295
3927,-0.275
3928,-0.285
3929,-0.355
3930,-0.355
3931,-0.375
3932,-0.335
3933,-0.315
3934,-0.295
3935,-0.315
3936,-0.285
3937,-0.245
3938,-0.245
3939,-0.265
3940,-0.205
3941,-0.205
3942,-0.145
3943,-0.125
3944,-0.125
3945,-0.135
3946,-0.125
3947,-0.125
3948,-0.135
3949,-0.155
3950,-0.175
3951,-0.175
3952,-0.195
3953,-0.145
3954,-0.105
3955,-0.105
3956,-0.085
3957,-0.075
3958,-0.095
3959,-0.115
3960,-0.135
3961,-0.145
3962,-0.145
3963,-0.165
3964,-0.135
3965,-0.135
3966,-0.135
3967,-0.125
3968,-0.135
3969,-0.155
3970,-0.145
3971,-0.175
3972,-0.145
3973,-0.135
3974,-0.135
3975,-0.145
3976,-0.145
3977,-0.175
3978,-0.155
3979,-0.135
3980,-0.125
3981,-0.115
3982,-0.105
3983,-0.025
3984,0.035
3985,-0.045
3986,-0.065
3987,-0.145
3988,-0.135
3989,-0.155
3990,-0.155
3991,-0.185
3992,-0.255
3993,-0.235
3994,-0.225
3995,-0.175
3996,-0.205
3997,-0.265
3998,-0.855
3999,-0.645
4000,0.605
4001,2.235
4002,2.705
4003,2.525
4004,1.205
4005,-0.255
4006,-0.405
4007,-0.285
4008,-0.325
4009,-0.385
4010,-0.395
4011,-0.405
4012,-0.345
4013,-0.325
4014,-0.355
4015,-0.345
4016,-0.275
4017,-0.285
4018,-0.245
4019,-0.255
4020,-0.225
4021,-0.265
4022,-0.225
4023,-0.195
4024,-0.165
4025,-0.165
4026,-0.175
4027,-0.245
4028,-0.225
4029,-0.215
4030,-0.205
4031,-0.175
4032,-0.245
4033,-0.205
4034,-0.135
4035,-0.105
4036,-0.135
4037,-0.185
4038,-0.165
4039,-0.175
4040,-0.175
4041,-0.215
4042,-0.205
4043,-0.175
4044,-0.215
4045,-0.235
4046,-0.185
4047,-0.175
4048,-0.175
4049,-0.205
4050,-0.175
4051,-0.195
4052,-0.205
4053,-0.225
4054,-0.215
4055,-0.185
4056,-0.245
4057,-0.205
4058,-0.195
4059,-0.245
4060,-0.145
4061,-0.125
4062,-0.165
4063,-0.015
4064,-0.025
4065,-0.105
4066,-0.135
4067,-0.185
4068,-0.195
4069,-0.195
4070,-0.195
4071,-0.265
4072,-0.265
4073,-0.295
4074,-0.285
4075,-0.315
4076,-0.205
4077,-0.465
4078,-0.945
4079,-0.535
4080,0.945
4081,2.475
4082,2.805
4083,2.435
4084,0.635
4085,-0.385
4086,-0.335
4087,-0.315
4088,-0.355
4089,-0.415
4090,-0.435
4091,-0.385
4092,-0.415
4093,-0.405
4094,-0.415
4095,-0.345
4096,-0.355
4097,-0.335
4098,-0.285
4099,-0.245
4100,-0.215
4101,-0.185
4102,-0.205
4103,-0.185
4104,-0.205
4105,-0.165
4106,-0.185
4107,-0.185
4108,-0.215
4109,-0.225
4110,-0.275
4111,-0.255
4112,-0.225
4113,-0.235
4114,-0.185
4115,-0.155
4116,-0.155
4117,-0.155
4118,-0.185
4119,-0.215
4120,-0.215
4121,-0.205
4122,-0.195
4123,-0.195
4124,-0.185
4125,-0.185
4126,-0.165
4127,-0.205
4128,-0.195
4129,-0.175
4130,-0.175
4131,-0.175
4132,-0.185
4133,-0.175
4134,-0.155
4135,-0.175
4136,-0.185
4137,-0.165
4138,-0.105
4139,-0.095
4140,-0.115
4141,-0.105
4142,-0.045
4143,-0.025
4144,-0.035
4145,-0.105
4146,-0.145
4147,-0.125
4148,-0.145
4149,-0.205
4150,-0.215
4151,-0.225
4152,-0.225
4153,-0.225
4154,-0.255
4155,-0.235
4156,-0.185
4157,-0.465
4158,-0.865
4159,-0.505
4160,1.125
4161,2.595
4162,2.885
4163,2.405
4164,0.795
4165,-0.215
4166,-0.315
4167,-0.315
4168,-0.325
4169,-0.365
4170,-0.365
4171,-0.375
4172,-0.365
4173,-0.295
4174,-0.335
4175,-0.295
4176,-0.275
4177,-0.285
4178,-0.275
4179,-0.215
4180,-0.205
4181,-0.155
4182,-0.155
4183,-0.135
4184,-0.125
4185,-0.105
4186,-0.135
4187,-0.145
4188,-0.175
4189,-0.185
4190,-0.195
4191,-0.185
4192,-0.155
4193,-0.145
4194,-0.145
4195,-0.145
4196,-0.145
4197,-0.145
4198,-0.155
4199,-0.155
4200,-0.195
4201,-0.165
4202,-0.165
4203,-0.135
4204,-0.165
4205,-0.155
4206,-0.175
4207,-0.145
4208,-0.105
4209,-0.125
4210,-0.155
4211,-0.155
4212,-0.125
4213,-0.155
4214,-0.145
4215,-0.135
4216,-0.135
4217,-0.125
4218,-0.175
4219,-0.155
4220,-0.105
4221,-0.065
4222,-0.105
4223,-0.085
4224,0.055
4225,0.015
4226,-0.045
4227,-0.095
4228,-0.115
4229,-0.125
4230,-0.135
4231,-0.195
4232,-0.225
4233,-0.225
4234,-0.235
4235,-0.195
4236,-0.205
4237,-0.165
4238,-0.435
4239,-0.795
4240,-0.455
4241,1.005
4242,2.455
4243,2.705
4244,2.315
4245,1.045
4246,-0.135
4247,-0.305
4248,-0.275
4249,-0.345
4250,-0.345
4251,-0.345
4252,-0.385
4253,-0.365
4254,-0.315
4255,-0.315
4256,-0.305
4257,-0.315
4258,-0.295
4259,-0.245
4260,-0.225
4261,-0.215
4262,-0.205
4263,-0.195
4264,-0.185
4265,-0.175
4266,-0.145
4267,-0.135
4268,-0.125
4269,-0.155
4270,-0.165
4271,-0.235
4272,-0.195
4273,-0.215
4274,-0.195
4275,-0.135
4276,-0.125
4277,-0.135
4278,-0.155
4279,-0.175
4280,-0.185
4281,-0.185
4282,-0.185
4283,-0.165
4284,-0.195
4285,-0.145
4286,-0.165
4287,-0.155
4288,-0.175
4289,-0.145
4290,-0.145
4291,-0.135
4292,-0.135
4293,-0.165
4294,-0.175
4295,-0.155
4296,-0.125
4297,-0.135
4298,-0.165
4299,-0.155
4300,-0.155
4301,-0.145
4302,-0.145
4303,-0.115
4304,-0.065
4305,-0.085
4306,-0.025
4307,0.035
4308,-0.045
4309,-0.045
4310,-0.085
4311,-0.095
4312,-0.125
4313,-0.165
4314,-0.165
4315,-0.195
4316,-0.235
4317,-0.205
4318,-0.165
4319,-0.165
4320,-0.165
4321,-0.645
4322,-0.755
4323,-0.065
4324,1.695
4325,2.645
4326,2.525
4327,1.795
4328,0.125
4329,-0.365
4330,-0.315
4331,-0.315
4332,-0.315
4333,-0.365
4334,-0.325
4335,-0.315
4336,-0.325
4337,-0.315
4338,-0.295
4339,-0.265
4340,-0.235
4341,-0.265
4342,-0.235
4343,-0.195
4344,-0.175
4345,-0.175
4346,-0.165
4347,-0.145
4348,-0.185
4349,-0.145
4350,-0.145
4351,-0.155
4352,-0.175
4353,-0.195
4354,-0.145
4355,-0.135
4356,-0.125
4357,-0.125
4358,-0.085
4359,-0.065
4360,-0.095
4361,-0.115
4362,-0.135
4363,-0.145
4364,-0.145
4365,-0.165
4366,-0.145
4367,-0.165
4368,-0.155
4369,-0.145
4370,-0.175
4371,-0.135
4372,-0.135
4373,-0.135
4374,-0.145
4375,-0.145
4376,-0.165
4377,-0.175
4378,-0.175
4379,-0.165
4380,-0.155
4381,-0.175
4382,-0.165
4383,-0.135
4384,-0.135
4385,-0.145
4386,-0.125
4387,-0.105
4388,-0.125
4389,-0.105
4390,-0.025
4391,0.035
4392,-0.035
4393,-0.105
4394,-0.135
4395,-0.115
4396,-0.155
4397,-0.195
4398,-0.195
4399,-0.215
4400,-0.215
4401,-0.245
4402,-0.195
4403,-0.105
4404,-0.485
4405,-0.855
4406,-0.145
4407,1.525
4408,2.715
4409,2.735
4410,2.205
4411,0.375
4412,-0.425
4413,-0.295
4414,-0.305
4415,-0.375
4416,-0.345
4417,-0.375
4418,-0.375
4419,-0.335
4420,-0.345
4421,-0.315
4422,-0.275
4423,-0.295
4424,-0.285
4425,-0.235
4426,-0.215
4427,-0.185
4428,-0.185
4429,-0.175
4430,-0.145
4431,-0.135
4432,-0.195
4433,-0.185
4434,-0.175
4435,-0.205
4436,-0.215
4437,-0.165
4438,-0.175
4439,-0.165
4440,-0.125
4441,-0.175
4442,-0.115
4443,-0.115
4444,-0.145
4445,-0.145
4446,-0.165
4447,-0.185
4448,-0.175
4449,-0.185
4450,-0.175
4451,-0.145
4452,-0.165
4453,-0.185
4454,-0.175
4455,-0.155
4456,-0.155
4457,-0.165
4458,-0.165
4459,-0.175
4460,-0.155
4461,-0.165
4462,-0.155
4463,-0.155
4464,-0.185
4465,-0.195
4466,-0.175
4467,-0.105
4468,-0.085
4469,-0.125
4470,-0.145
4471,0.035
4472,0.005
4473,-0.065
4474,-0.085
4475,-0.105
4476,-0.115
4477,-0.205
4478,-0.185
4479,-0.205
4480,-0.195
4481,-0.255
4482,-0.225
4483,-0.205
4484,-0.165
4485,-0.445
4486,-0.875
4487,-0.315
4488,1.265
4489,2.605
4490,2.835
4491,2.315
4492,0.635
4493,-0.325
4494,-0.275
4495,-0.255
4496,-0.325
4497,-0.385
4498,-0.385
4499,-0.335
4500,-0.355
4501,-0.305
4502,-0.285
4503,-0.305
4504,-0.275
4505,-0.255
4506,-0.245
4507,-0.165
4508,-0.175
4509,-0.175
4510,-0.145
4511,-0.115
4512,-0.115
4513,-0.125
4514,-0.105
4515,-0.125
4516,-0.155
4517,-0.185
4518,-0.185
4519,-0.175
4520,-0.185
4521,-0.125
4522,-0.135
4523,-0.125
4524,-0.135
4525,-0.145
4526,-0.195
4527,-0.145
4528,-0.145
4529,-0.165
4530,-0.165
4531,-0.155
4532,-0.155
4533,-0.175
4534,-0.125
4535,-0.115
4536,-0.115
4537,-0.145
4538,-0.145
4539,-0.125
4540,-0.125
4541,-0.135
4542,-0.145
4543,-0.115
4544,-0.175
4545,-0.135
4546,-0.155
4547,-0.135
4548,-0.155
4549,-0.095
4550,-0.055
4551,-0.065
4552,-0.065
4553,0.065
4554,0.015
4555,-0.035
4556,-0.105
4557,-0.085
4558,-0.105
4559,-0.115
4560,-0.165
4561,-0.185
4562,-0.195
4563,-0.195
4564,-0.175
4565,-0.185
4566,-0.145
4567,-0.325
4568,-0.775
4569,-0.295
4570,1.355
4571,2.695
4572,2.835
4573,2.275
4574,0.745
4575,-0.225
4576,-0.275
4577,-0.245
4578,-0.315
4579,-0.305
4580,-0.355
4581,-0.325
4582,-0.315
4583,-0.295
4584,-0.275
4585,-0.295
4586,-0.265
4587,-0.215
4588,-0.185
4589,-0.195
4590,-0.155
4591,-0.155
4592,-0.155
4593,-0.115
4594,-0.095
4595,-0.085
4596,-0.095
4597,-0.095
4598,-0.115
4599,-0.135
4600,-0.115
4601,-0.135
4602,-0.145
4603,-0.135
4604,-0.125
4605,-0.085
4606,-0.095
4607,-0.115
4608,-0.125
4609,-0.145
4610,-0.135
4611,-0.165
4612,-0.145
4613,-0.135
4614,-0.125
4615,-0.125
4616,-0.135
4617,-0.125
4618,-0.135
4619,-0.115
4620,-0.125
4621,-0.125
4622,-0.135
4623,-0.105
4624,-0.095
4625,-0.125
4626,-0.125
4627,-0.145
4628,-0.145
4629,-0.125
4630,-0.125
4631,-0.095
4632,-0.035
4633,-0.055
4634,-0.085
4635,0.035
4636,0.035
4637,0.005
4638,-0.065
4639,-0.115
4640,-0.085
4641,-0.145
4642,-0.145
4643,-0.165
4644,-0.195
4645,-0.165
4646,-0.175
4647,-0.175
4648,-0.125
4649,-0.335
4650,-0.795
4651,-0.485
4652,1.045
4653,2.575
4654,2.775
4655,2.355
4656,0.755
4657,-0.285
4658,-0.275
4659,-0.245
4660,-0.305
4661,-0.315
4662,-0.355
4663,-0.335
4664,-0.325
4665,-0.285
4666,-0.285
4667,-0.265
4668,-0.245
4669,-0.235
4670,-0.185
4671,-0.195
4672,-0.175
4673,-0.135
4674,-0.125
4675,-0.145
4676,-0.105
4677,-0.105
4678,-0.095
4679,-0.085
4680,-0.195
4681,-0.145
4682,-0.135
4683,-0.125
4684,-0.105
4685,-0.115
4686,-0.075
4687,-0.085
4688,-0.075
4689,-0.115
4690,-0.125
4691,-0.125
4692,-0.135
4693,-0.145
4694,-0.165
4695,-0.145
4696,-0.135
4697,-0.165
4698,-0.165
4699,-0.135
4700,-0.145
4701,-0.145
4702,-0.165
4703,-0.135
4704,-0.155
4705,-0.145
4706,-0.175
4707,-0.125
4708,-0.155
4709,-0.145
4710,-0.145
4711,-0.155
4712,-0.125
4713,-0.095
4714,-0.095
4715,-0.075
4716,0.015
4717,0.005
4718,-0.045
4719,-0.165
4720,-0.115
4721,-0.115
4722,-0.125
4723,-0.145
4724,-0.235
4725,-0.265
4726,-0.205
4727,-0.185
4728,-0.185
4729,-0.175
4730,-0.215
4731,-0.835
4732,-0.735
4733,0.455
4734,2.125
4735,2.785
4736,2.525
4737,1.655
4738,-0.015
4739,-0.375
4740,-0.285
4741,-0.325
4742,-0.375
4743,-0.335
4744,-0.315
4745,-0.385
4746,-0.335
4747,-0.295
4748,-0.365
4749,-0.275
4750,-0.235
4751,-0.245
4752,-0.225
4753,-0.205
4754,-0.185
4755,-0.175
4756,-0.165
4757,-0.175
4758,-0.155
4759,-0.155
4760,-0.125
4761,-0.205
4762,-0.195
4763,-0.165
4764,-0.215
4765,-0.195
4766,-0.135
4767,-0.105
4768,-0.095
4769,-0.115
4770,-0.165
4771,-0.145
4772,-0.175
4773,-0.175
4774,-0.145
4775,-0.125
4776,-0.145
4777,-0.175
4778,-0.185
4779,-0.145
4780,-0.155
4781,-0.155
4782,-0.145
4783,-0.175
4784,-0.165
4785,-0.165
4786,-0.135
4787,-0.115
4788,-0.155
4789,-0.185
4790,-0.155
4791,-0.155
4792,-0.165
4793,-0.145
4794,-0.075
4795,-0.105
4796,-0.105
4797,0.035
4798,0.005
4799,-0.035
4800,-0.075
4801,-0.125
4802,-0.155
4803,-0.155
4804,-0.165
4805,-0.215
4806,-0.225
4807,-0.225
4808,-0.185
4809,-0.175
4810,-0.165
4811,-0.375
4812,-0.845
4813,-0.365
4814,1.295
4815,2.605
4816,2.825
4817,2.485
4818,0.915
4819,-0.265
4820,-0.315
4821,-0.275
4822,-0.325
4823,-0.345
4824,-0.385
4825,-0.345
4826,-0.335
4827,-0.305
4828,-0.295
4829,-0.285
4830,-0.275
4831,-0.255
4832,-0.225
4833,-0.205
4834,-0.185
4835,-0.165
4836,-0.135
4837,-0.145
4838,-0.115
4839,-0.115
4840,-0.155
4841,-0.125
4842,-0.145
4843,-0.205
4844,-0.185
4845,-0.165
4846,-0.165
4847,-0.125
4848,-0.125
4849,-0.095
4850,-0.095
4851,-0.105
4852,-0.115
4853,-0.145
4854,-0.125
4855,-0.125
4856,-0.125
4857,-0.115
4858,-0.125
4859,-0.125
4860,-0.115
4861,-0.115
4862,-0.125
4863,-0.105
4864,-0.095
4865,-0.105
4866,-0.105
4867,-0.095
4868,-0.105
4869,-0.115
4870,-0.105
4871,-0.105
4872,-0.145
4873,-0.125
4874,-0.105
4875,-0.075
4876,-0.055
4877,-0.055
4878,-0.045
4879,0.045
4880,0.035
4881,-0.025
4882,-0.055
4883,-0.075
4884,-0.075
4885,-0.085
4886,-0.125
4887,-0.175
4888,-0.185
4889,-0.175
4890,-0.185
4891,-0.165
4892,-0.135
4893,-0.455
4894,-0.725
4895,-0.235
4896,1.375
4897,2.675
4898,2.815
4899,2.175
4900,0.555
4901,-0.275
4902,-0.265
4903,-0.265
4904,-0.285
4905,-0.315
4906,-0.335
4907,-0.325
4908,-0.325
4909,-0.315
4910,-0.265
4911,-0.255
4912,-0.235
4913,-0.215
4914,-0.215
4915,-0.185
4916,-0.155
4917,-0.125
4918,-0.125
4919,-0.115
4920,-0.095
4921,-0.105
4922,-0.085
4923,-0.135
4924,-0.125
4925,-0.135
4926,-0.165
4927,-0.155
4928,-0.155
4929,-0.105
4930,-0.115
4931,-0.095
4932,-0.085
4933,-0.135
4934,-0.145
4935,-0.125
4936,-0.135
4937,-0.155
4938,-0.135
4939,-0.115
4940,-0.105
4941,-0.125
4942,-0.115
4943,-0.115
4944,-0.125
4945,-0.115
4946,-0.105
4947,-0.105
4948,-0.095
4949,-0.115
4950,-0.105
4951,-0.115
4952,-0.125
4953,-0.125
4954,-0.125
4955,-0.115
4956,-0.125
4957,-0.135
4958,-0.105
4959,-0.045
4960,-0.045
4961,-0.045
4962,0.035
4963,0.065
4964,-0.005
4965,-0.045
4966,-0.075
4967,-0.045
4968,-0.085
4969,-0.135
4970,-0.165
4971,-0.175
4972,-0.155
4973,-0.175
4974,-0.145
4975,-0.115
4976,-0.145
4977,-0.625
4978,-0.645
4979,0.465
4980,2.045
4981,2.655
4982,2.455
4983,1.465
4984,0.105
4985,-0.255
4986,-0.235
4987,-0.245
4988,-0.305
4989,-0.295
4990,-0.335
4991,-0.315
4992,-0.235
4993,-0.285
4994,-0.255
4995,-0.275
4996,-0.215
4997,-0.185
4998,-0.185
4999,-0.135
5000,-0.155
5001,-0.125
5002,-0.165
5003,-0.095
5004,-0.065
5005,-0.085
5006,-0.065
5007,-0.125
5008,-0.175
5009,-0.175
5010,-0.145
5011,-0.145
5012,-0.125
5013,-0.125
5014,-0.125
5015,-0.115
5016,-0.105
5017,-0.145
5018,-0.145
5019,-0.135
5020,-0.165
5021,-0.205
5022,-0.115
5023,-0.145
5024,-0.175
5025,-0.155
5026,-0.135
5027,-0.155
5028,-0.165
5029,-0.165
5030,-0.145
5031,-0.145
5032,-0.155
5033,-0.165
5034,-0.165
5035,-0.105
5036,-0.155
5037,-0.155
5038,-0.165
5039,-0.145
5040,-0.185
5041,-0.185
5042,-0.135
5043,-0.085
5044,-0.075
5045,-0.085
5046,0.005
5047,0.015
5048,-0.075
5049,-0.105
5050,-0.085
5051,-0.155
5052,-0.125
5053,-0.155
5054,-0.245
5055,-0.185
5056,-0.195
5057,-0.265
5058,-0.175
5059,-0.175
5060,-0.345
5061,-0.695
5062,-0.495
5063,0.825
5064,2.325
5065,2.695
5066,2.305
5067,0.855
5068,-0.305
5069,-0.335
5070,-0.345
5071,-0.305
5072,-0.325
5073,-0.345
5074,-0.375
5075,-0.355
5076,-0.325
5077,-0.335
5078,-0.305
5079,-0.255
5080,-0.255
5081,-0.245
5082,-0.245
5083,-0.225
5084,-0.195
5085,-0.185
5086,-0.225
5087,-0.175
5088,-0.105
5089,-0.155
5090,-0.165
5091,-0.165
5092,-0.185
5093,-0.195
5094,-0.175
5095,-0.145
5096,-0.135
5097,-0.195
5098,-0.115
5099,-0.085
5100,-0.115
5101,-0.165
5102,-0.155
5103,-0.175
5104,-0.195
5105,-0.155
5106,-0.165
5107,-0.195
5108,-0.175
5109,-0.215
5110,-0.195
5111,-0.185
5112,-0.165
5113,-0.145
5114,-0.175
5115,-0.145
5116,-0.205
5117,-0.225
5118,-0.165
5119,-0.195
5120,-0.185
5121,-0.175
5122,-0.155
5123,-0.155
5124,-0.205
5125,-0.125
5126,-0.095
5127,-0.135
5128,-0.045
5129,-0.005
5130,-0.085
5131,-0.135
5132,-0.125
5133,-0.145
5134,-0.165
5135,-0.205
5136,-0.225
5137,-0.235
5138,-0.265
5139,-0.215
5140,-0.185
5141,-0.205
5142,-0.355
5143,-0.875
5144,-0.505
5145,0.895
5146,2.465
5147,2.695
5148,2.415
5149,0.945
5150,-0.285
5151,-0.385
5152,-0.405
5153,-0.305
5154,-0.295
5155,-0.345
5156,-0.335
5157,-0.365
5158,-0.405
5159,-0.265
5160,-0.295
5161,-0.305
5162,-0.255
5163,-0.255
5164,-0.255
5165,-0.235
5166,-0.215
5167,-0.235
5168,-0.185
5169,-0.145
5170,-0.155
5171,-0.155
5172,-0.185
5173,-0.215
5174,-0.205
5175,-0.195
5176,-0.205
5177,-0.175
5178,-0.135
5179,-0.125
5180,-0.135
5181,-0.175
5182,-0.155
5183,-0.125
5184,-0.155
5185,-0.195
5186,-0.175
5187,-0.175
5188,-0.165
5189,-0.175
5190,-0.175
5191,-0.155
5192,-0.175
5193,-0.185
5194,-0.205
5195,-0.155
5196,-0.125
5197,-0.175
5198,-0.205
5199,-0.115
5200,-0.165
5201,-0.215
5202,-0.125
5203,-0.155
5204,-0.195
5205,-0.135
5206,-0.095
5207,-0.115
5208,-0.075
5209,-0.055
5210,0.055
5211,-0.045
5212,-0.095
5213,-0.135
5214,-0.105
5215,-0.115
5216,-0.165
5217,-0.205
5218,-0.195
5219,-0.235
5220,-0.165
5221,-0.165
5222,-0.145
5223,-0.205
5224,-0.745
5225,-0.555
5226,0.755
5227,2.285
5228,2.865
5229,2.675
5230,1.515
5231,0.025
5232,-0.355
5233,-0.255
5234,-0.245
5235,-0.305
5236,-0.335
5237,-0.345
5238,-0.335
5239,-0.305
5240,-0.275
5241,-0.265
5242,-0.275
5243,-0.235
5244,-0.235
5245,-0.205
5246,-0.195
5247,-0.165
5248,-0.135
5249,-0.155
5250,-0.145
5251,-0.105
5252,-0.125
5253,-0.125
5254,-0.115
5255,-0.135
5256,-0.185
5257,-0.195
5258,-0.205
5259,-0.145
5260,-0.115
5261,-0.135
5262,-0.105
5263,-0.115
5264,-0.095
5265,-0.115
5266,-0.135
5267,-0.145
5268,-0.165
5269,-0.185
5270,-0.135
5271,-0.125
5272,-0.145
5273,-0.145
5274,-0.135
5275,-0.105
5276,-0.155
5277,-0.145
5278,-0.125
5279,-0.115
5280,-0.115
5281,-0.135
5282,-0.145
5283,-0.135
5284,-0.105
5285,-0.125
5286,-0.125
5287,-0.135
5288,-0.095
5289,-0.045
5290,-0.075
5291,-0.035
5292,0.045
5293,0.025
5294,-0.035
5295,-0.085
5296,-0.115
5297,-0.115
5298,-0.145
5299,-0.135
5300,-0.145
5301,-0.165
5302,-0.195
5303,-0.195
5304,-0.185
5305,-0.125
5306,-0.365
5307,-0.765
5308,-0.385
5309,1.205
5310,2.685
5311,2.875
5312,2.085
5313,0.265
5314,-0.305
5315,-0.255
5316,-0.245
5317,-0.335
5318,-0.345
5319,-0.335
5320,-0.325
5321,-0.325
5322,-0.305
5323,-0.235
5324,-0.295
5325,-0.245
5326,-0.235
5327,-0.185
5328,-0.175
5329,-0.185
5330,-0.115
5331,-0.145
5332,-0.085
5333,-0.095
5334,-0.075
5335,-0.115
5336,-0.115
5337,-0.095
5338,-0.165
5339,-0.135
5340,-0.155
5341,-0.115
5342,-0.105
5343,-0.115
5344,-0.105
5345,-0.075
5346,-0.125
5347,-0.145
5348,-0.125
5349,-0.175
5350,-0.125
5351,-0.135
5352,-0.135
5353,-0.135
5354,-0.135
5355,-0.155
5356,-0.115
5357,-0.155
5358,-0.135
5359,-0.155
5360,-0.135
5361,-0.125
5362,-0.125
5363,-0.115
5364,-0.105
5365,-0.125
5366,-0.165
5367,-0.115
5368,-0.005
5369,-0.105
5370,-0.125
5371,-0.095
5372,0.035
5373,0.025
5374,-0.045
5375,-0.105
5376,-0.105
5377,-0.115
5378,-0.135
5379,-0.155
5380,-0.225
5381,-0.205
5382,-0.175
5383,-0.195
5384,-0.205
5385,-0.165
5386,-0.215
5387,-0.815
5388,-0.715
5389,0.375
5390,2.055
5391,2.805
5392,2.555
5393,1.615
5394,0.135
5395,-0.335
5396,-0.295
5397,-0.355
5398,-0.325
5399,-0.365
5400,-0.345
5401,-0.375
5402,-0.335
5403,-0.315
5404,-0.315
5405,-0.315
5406,-0.315
5407,-0.225
5408,-0.245
5409,-0.215
5410,-0.185
5411,-0.165
5412,-0.165
5413,-0.155
5414,-0.155
5415,-0.135
5416,-0.145
5417,-0.215
5418,-0.185
5419,-0.195
5420,-0.165
5421,-0.175
5422,-0.155
5423,-0.165
5424,-0.155
5425,-0.115
5426,-0.165
5427,-0.155
5428,-0.165
5429,-0.205
5430,-0.165
5431,-0.165
5432,-0.195
5433,-0.205
5434,-0.165
5435,-0.185
5436,-0.165
5437,-0.165
5438,-0.135
5439,-0.125
5440,-0.175
5441,-0.105
5442,-0.155
5443,-0.185
5444,-0.185
5445,-0.145
5446,-0.175
5447,-0.135
5448,-0.105
5449,-0.105
5450,-0.105
5451,-0.085
5452,0.055
5453,-0.005
5454,-0.125
5455,-0.045
5456,-0.185
5457,-0.105
5458,-0.105
5459,-0.175
5460,-0.175
5461,-0.225
5462,-0.245
5463,-0.205
5464,-0.175
5465,-0.185
5466,-0.245
5467,-0.855
5468,-0.645
5469,0.655
5470,2.345
5471,2.725
5472,2.485
5473,1.195
5474,-0.165
5475,-0.355
5476,-0.265
5477,-0.315
5478,-0.345
5479,-0.425
5480,-0.305
5481,-0.315
5482,-0.305
5483,-0.295
5484,-0.315
5485,-0.265
5486,-0.275
5487,-0.265
5488,-0.235
5489,-0.225
5490,-0.185
5491,-0.175
5492,-0.165
5493,-0.165
5494,-0.185
5495,-0.155
5496,-0.175
5497,-0.255
5498,-0.195
5499,-0.165
5500,-0.145
5501,-0.135
5502,-0.165
5503,-0.095
5504,-0.125
5505,-0.165
5506,-0.115
5507,-0.115
5508,-0.155
5509,-0.175
5510,-0.175
5511,-0.225
5512,-0.145
5513,-0.155
5514,-0.175
5515,-0.165
5516,-0.185
5517,-0.145
5518,-0.145
5519,-0.165
5520,-0.165
5521,-0.185
5522,-0.155
5523,-0.155
5524,-0.155
5525,-0.175
5526,-0.145
5527,-0.195
5528,-0.185
5529,-0.185
5530,-0.145
5531,-0.125
5532,-0.145
5533,-0.065
5534,0.025
5535,0.005
5536,-0.065
5537,-0.165
5538,-0.155
5539,-0.155
5540,-0.155
5541,-0.185
5542,-0.205
5543,-0.215
5544,-0.235
5545,-0.245
5546,-0.205
5547,-0.165
5548,-0.395
5549,-0.825
5550,-0.275
5551,1.135
5552,2.565
5553,2.785
5554,2.465
5555,0.755
5556,-0.375
5557,-0.335
5558,-0.345
5559,-0.365
5560,-0.395
5561,-0.355
5562,-0.345
5563,-0.355
5564,-0.315
5565,-0.345
5566,-0.295
5567,-0.285
5568,-0.275
5569,-0.245
5570,-0.235
5571,-0.245
5572,-0.215
5573,-0.195
5574,-0.235
5575,-0.145
5576,-0.125
5577,-0.175
5578,-0.155
5579,-0.155
5580,-0.205
5581,-0.195
5582,-0.155
5583,-0.215
5584,-0.175
5585,-0.145
5586,-0.065
5587,-0.205
5588,-0.175
5589,-0.125
5590,-0.155
5591,-0.155
5592,-0.195
5593,-0.155
5594,-0.185
5595,-0.185
5596,-0.195
5597,-0.205
5598,-0.215
5599,-0.195
5600,-0.105
5601,-0.155
5602,-0.185
5603,-0.145
5604,-0.195
5605,-0.155
5606,-0.215
5607,-0.175
5608,-0.105
5609,-0.175
5610,-0.205
5611,-0.135
5612,-0.105
5613,-0.145
5614,-0.155
5615,-0.035
5616,-0.035
5617,-0.075
5618,-0.085
5619,-0.115
5620,-0.195
5621,-0.185
5622,-0.175
5623,-0.215
5624,-0.225
5625,-0.225
5626,-0.225
5627,-0.205
5628,-0.155
5629,-0.365
5630,-0.865
5631,-0.435
5632,1.115
5633,2.645
5634,2.955
5635,2.595
5636,0.965
5637,-0.345
5638,-0.295
5639,-0.275
5640,-0.345
5641,-0.415
5642,-0.375
5643,-0.325
5644,-0.335
5645,-0.325
5646,-0.355
5647,-0.325
5648,-0.275
5649,-0.245
5650,-0.265
5651,-0.245
5652,-0.205
5653,-0.185
5654,-0.155
5655,-0.115
5656,-0.135
5657,-0.145
5658,-0.155
5659,-0.095
5660,-0.105
5661,-0.155
5662,-0.165
5663,-0.155
5664,-0.155
5665,-0.145
5666,-0.135
5667,-0.095
5668,-0.095
5669,-0.135
5670,-0.145
5671,-0.135
5672,-0.175
5673,-0.175
5674,-0.175
5675,-0.185
5676,-0.155
5677,-0.165
5678,-0.135
5679,-0.175
5680,-0.125
5681,-0.135
5682,-0.145
5683,-0.145
5684,-0.155
5685,-0.155
5686,-0.175
5687,-0.075
5688,-0.155
5689,-0.155
5690,-0.105
5691,-0.125
5692,-0.075
5693,-0.055
5694,-0.055
5695,-0.055
5696,0.015
5697,0.005
5698,-0.095
5699,-0.095
5700,-0.155
5701,-0.125
5702,-0.125
5703,-0.155
5704,-0.215
5705,-0.195
5706,-0.165
5707,-0.195
5708,-0.125
5709,-0.115
5710,-0.475
5711,-0.745
5712,-0.045
5713,1.505
5714,2.625
5715,2.775
5716,2.315
5717,0.695
5718,-0.205
5719,-0.205
5720,-0.255
5721,-0.325
5722,-0.325
5723,-0.335
5724,-0.315
5725,-0.315
5726,-0.305
5727,-0.295
5728,-0.265
5729,-0.245
5730,-0.215
5731,-0.195
5732,-0.165
5733,-0.205
5734,-0.115
5735,-0.105
5736,-0.125
5737,-0.105
5738,-0.085
5739,-0.105
5740,-0.145
5741,-0.135
5742,-0.185
5743,-0.125
5744,-0.185
5745,-0.185
5746,-0.145
5747,-0.095
5748,-0.095
5749,-0.135
5750,-0.145
5751,-0.145
5752,-0.135
5753,-0.185
5754,-0.175
5755,-0.115
5756,-0.155
5757,-0.145
5758,-0.165
5759,-0.145
5760,-0.165
5761,-0.095
5762,-0.105
5763,-0.095
5764,-0.145
5765,-0.115
5766,-0.115
5767,-0.135
5768,-0.115
5769,-0.095
5770,-0.125
5771,-0.145
5772,-0.155
5773,-0.115
5774,-0.135
5775,-0.135
5776,-0.095
5777,-0.075
5778,-0.035
5779,-0.075
5780,-0.035
5781,0.055
5782,-0.035
5783,-0.065
5784,-0.105
5785,-0.125
5786,-0.115
5787,-0.095
5788,-0.185
5789,-0.205
5790,-0.165
5791,-0.155
5792,-0.205
5793,-0.135
5794,-0.185
5795,-0.645
5796,-0.655
5797,0.465
5798,2.065
5799,2.805
5800,2.575
5801,1.375
5802,-0.035
5803,-0.245
5804,-0.285
5805,-0.275
5806,-0.285
5807,-0.345
5808,-0.335
5809,-0.295
5810,-0.305
5811,-0.285
5812,-0.275
5813,-0.265
5814,-0.255
5815,-0.185
5816,-0.155
5817,-0.155
5818,-0.165
5819,-0.095
5820,-0.095
5821,-0.115
5822,-0.065
5823,-0.075
5824,-0.095
5825,-0.095
5826,-0.135
5827,-0.145
5828,-0.145
5829,-0.155
5830,-0.135
5831,-0.115
5832,-0.105
5833,-0.095
5834,-0.135
5835,-0.135
5836,-0.115
5837,-0.155
5838,-0.145
5839,-0.135
5840,-0.145
5841,-0.135
5842,-0.135
5843,-0.085
5844,-0.135
5845,-0.125
5846,-0.145
5847,-0.095
5848,-0.095
5849,-0.145
5850,-0.095
5851,-0.145
5852,-0.155
5853,-0.105
5854,-0.085
5855,-0.115
5856,-0.155
5857,-0.145
5858,-0.135
5859,-0.145
5860,-0.105
5861,-0.065
5862,-0.085
5863,-0.095
5864,0.005
5865,0.005
5866,0.025
5867,-0.025
5868,-0.045
5869,-0.075
5870,-0.085
5871,-0.115
5872,-0.145
5873,-0.185
5874,-0.155
5875,-0.195
5876,-0.145
5877,-0.145
5878,-0.135
5879,-0.235
5880,-0.715
5881,-0.505
5882,0.905
5883,2.435
5884,2.735
5885,2.365
5886,0.925
5887,-0.175
5888,-0.305
5889,-0.235
5890,-0.265
5891,-0.325
5892,-0.295
5893,-0.295
5894,-0.285
5895,-0.275
5896,-0.265
5897,-0.275
5898,-0.245
5899,-0.225
5900,-0.205
5901,-0.205
5902,-0.135
5903,-0.105
5904,-0.055
5905,-0.115
5906,-0.065
5907,-0.075
5908,-0.075
5909,-0.135
5910,-0.045
5911,-0.085
5912,-0.105
5913,-0.155
5914,-0.095
5915,-0.115
5916,-0.105
5917,-0.105
5918,-0.075
5919,-0.075
5920,-0.115
5921,-0.125
5922,-0.135
5923,-0.125
5924,-0.115
5925,-0.135
5926,-0.155
5927,-0.145
5928,-0.075
5929,-0.115
5930,-0.145
5931,-0.125
5932,-0.055
5933,-0.115
5934,-0.085
5935,-0.085
5936,-0.135
5937,-0.095
5938,-0.115
5939,-0.125
5940,-0.085
5941,-0.125
5942,-0.105
5943,-0.115
5944,-0.125
5945,-0.105
5946,-0.135
5947,-0.155
5948,-0.015
5949,-0.085
5950,-0.015
5951,0.045
5952,0.095
5953,-0.015
5954,-0.055
5955,-0.045
5956,-0.085
5957,-0.125
5958,-0.095
5959,-0.185
5960,-0.145
5961,-0.165
5962,-0.205
5963,-0.095
5964,-0.095
5965,-0.295
5966,-0.735
5967,-0.295
5968,1.165
5969,2.555
5970,2.705
5971,2.405
5972,0.755
5973,-0.295
5974,-0.305
5975,-0.255
5976,-0.315
5977,-0.305
5978,-0.315
5979,-0.305
5980,-0.295
5981,-0.285
5982,-0.215
5983,-0.235
5984,-0.255
5985,-0.235
5986,-0.195
5987,-0.165
5988,-0.215
5989,-0.175
5990,-0.085
5991,-0.095
5992,-0.135
5993,-0.105
5994,-0.105
5995,-0.085
5996,-0.085
5997,-0.155
5998,-0.135
5999,-0.135
6000,-0.115
6001,-0.095
6002,-0.105
6003,-0.115
6004,-0.105
6005,-0.095
6006,-0.085
6007,-0.105
6008,-0.175
6009,-0.195
6010,-0.145
6011,-0.125
6012,-0.115
6013,-0.125
6014,-0.145
6015,-0.135
6016,-0.115
6017,-0.135
6018,-0.115
6019,-0.125
6020,-0.125
6021,-0.185
6022,-0.115
6023,-0.095
6024,-0.115
6025,-0.135
6026,-0.165
6027,-0.145
6028,-0.155
6029,-0.135
6030,-0.155
6031,-0.175
6032,-0.115
6033,-0.115
6034,-0.075
6035,-0.085
6036,-0.055
6037,0.055
6038,-0.025
6039,-0.065
6040,-0.085
6041,-0.055
6042,-0.105
6043,-0.125
6044,-0.175
6045,-0.175
6046,-0.215
6047,-0.195
6048,-0.205
6049,-0.165
6050,-0.175
6051,-0.725
6052,-0.365
6053,1.055
6054,2.535
6055,2.845
6056,2.525
6057,0.885
6058,-0.325
6059,-0.285
6060,-0.265
6061,-0.345
6062,-0.325
6063,-0.385
6064,-0.325
6065,-0.285
6066,-0.265
6067,-0.275
6068,-0.285
6069,-0.225
6070,-0.205
6071,-0.185
6072,-0.175
6073,-0.175
6074,-0.135
6075,-0.165
6076,-0.105
6077,-0.085
6078,-0.125
6079,-0.095
6080,-0.095
6081,-0.055
6082,-0.155
6083,-0.145
6084,-0.125
6085,-0.085
6086,-0.075
6087,-0.085
6088,-0.085
6089,-0.095
6090,-0.115
6091,-0.135
6092,-0.125
6093,-0.135
6094,-0.125
6095,-0.155
6096,-0.135
6097,-0.125
6098,-0.125
6099,-0.145
6100,-0.145
6101,-0.115
6102,-0.115
6103,-0.115
6104,-0.115
6105,-0.135
6106,-0.115
6107,-0.095
6108,-0.135
6109,-0.135
6110,-0.115
6111,-0.115
6112,-0.135
6113,-0.115
6114,-0.075
6115,-0.035
6116,-0.055
6117,-0.015
6118,0.045
6119,0.015
6120,-0.045
6121,-0.115
6122,-0.115
6123,-0.115
6124,-0.115
6125,-0.155
6126,-0.185
6127,-0.195
6128,-0.185
6129,-0.155
6130,-0.125
6131,-0.205
6132,-0.715
6133,-0.605
6134,0.515
6135,2.165
6136,2.885
6137,2.705
6138,1.535
6139,0.025
6140,-0.285
6141,-0.245
6142,-0.265
6143,-0.325
6144,-0.315
6145,-0.345
6146,-0.305
6147,-0.335
6148,-0.295
6149,-0.245
6150,-0.265
6151,-0.255
6152,-0.235
6153,-0.175
6154,-0.155
6155,-0.155
6156,-0.135
6157,-0.125
6158,-0.135
6159,-0.065
6160,-0.105
6161,-0.135
6162,-0.105
6163,-0.165
6164,-0.185
6165,-0.185
6166,-0.175
6167,-0.145
6168,-0.145
6169,-0.125
6170,-0.165
6171,-0.145
6172,-0.165
6173,-0.145
6174,-0.155
6175,-0.165
6176,-0.155
6177,-0.145
6178,-0.155
6179,-0.165
6180,-0.105
6181,-0.165
6182,-0.175
6183,-0.155
6184,-0.145
6185,-0.135
6186,-0.145
6187,-0.105
6188,-0.145
6189,-0.195
6190,-0.135
6191,-0.145
6192,-0.155
6193,-0.155
6194,-0.055
6195,-0.055
6196,-0.095
6197,-0.025
6198,0.045
6199,-0.035
6200,-0.075
6201,-0.125
6202,-0.125
6203,-0.135
6204,-0.185
6205,-0.165
6206,-0.185
6207,-0.195
6208,-0.225
6209,-0.245
6210,-0.165
6211,-0.165
6212,-0.525
6213,-0.795
6214,-0.165
6215,1.525
6216,2.675
6217,2.805
6218,2.235
6219,0.645
6220,-0.255
6221,-0.245
6222,-0.265
6223,-0.365
6224,-0.355
6225,-0.355
6226,-0.355
6227,-0.335
6228,-0.325
6229,-0.285
6230,-0.305
6231,-0.265
6232,-0.235
6233,-0.245
6234,-0.205
6235,-0.195
6236,-0.165
6237,-0.165
6238,-0.105
6239,-0.105
6240,-0.085
6241,-0.115
6242,-0.115
6243,-0.155
6244,-0.165
6245,-0.145
6246,-0.175
6247,-0.165
6248,-0.145
6249,-0.135
6250,-0.125
6251,-0.145
6252,-0.115
6253,-0.185
6254,-0.155
6255,-0.185
6256,-0.205
6257,-0.155
6258,-0.175
6259,-0.205
6260,-0.135
6261,-0.095
6262,-0.145
6263,-0.175
6264,-0.165
6265,-0.165
6266,-0.145
6267,-0.145
6268,-0.165
6269,-0.165
6270,-0.145
6271,-0.155
6272,-0.185
6273,-0.135
6274,-0.135
6275,-0.105
6276,-0.065
6277,-0.115
6278,-0.065
6279,0.025
6280,0.015
6281,-0.055
6282,-0.135
6283,-0.155
6284,-0.105
6285,-0.145
6286,-0.165
6287,-0.225
6288,-0.255
6289,-0.235
6290,-0.155
6291,-0.205
6292,-0.215
6293,-0.265
6294,-0.785
6295,-0.555
6296,0.805
6297,2.365
6298,2.675
6299,2.385
6300,1.135
6301,-0.155
6302,-0.345
6303,-0.245
6304,-0.305
6305,-0.355
6306,-0.375
6307,-0.355
6308,-0.375
6309,-0.295
6310,-0.305
6311,-0.265
6312,-0.255
6313,-0.245
6314,-0.255
6315,-0.225
6316,-0.215
6317,-0.175
6318,-0.175
6319,-0.145
6320,-0.145
6321,-0.155
6322,-0.145
6323,-0.125
6324,-0.165
6325,-0.155
6326,-0.155
6327,-0.125
6328,-0.125
6329,-0.115
6330,-0.115
6331,-0.115
6332,-0.105
6333,-0.125
6334,-0.125
6335,-0.145
6336,-0.165
6337,-0.135
6338,-0.185
6339,-0.205
6340,-0.155
6341,-0.175
6342,-0.145
6343,-0.125
6344,-0.145
6345,-0.135
6346,-0.185
6347,-0.135
6348,-0.175
6349,-0.155
6350,-0.165
6351,-0.175
6352,-0.215
6353,-0.125
6354,-0.165
6355,-0.225
6356,-0.065
6357,-0.055
6358,-0.085
6359,-0.015
6360,0.025
6361,-0.065
6362,-0.135
6363,-0.145
6364,-0.155
6365,-0.145
6366,-0.195
6367,-0.195
6368,-0.225
6369,-0.275
6370,-0.225
6371,-0.195
6372,-0.165
6373,-0.445
6374,-0.875
6375,-0.335
6376,1.275
6377,2.665
6378,2.845
6379,2.595
6380,0.925
6381,-0.345
6382,-0.345
6383,-0.265
6384,-0.325
6385,-0.365
6386,-0.385
6387,-0.395
6388,-0.335
6389,-0.335
6390,-0.335
6391,-0.305
6392,-0.275
6393,-0.275
6394,-0.295
6395,-0.235
6396,-0.215
6397,-0.195
6398,-0.175
6399,-0.125
6400,-0.115
6401,-0.145
6402,-0.125
6403,-0.135
6404,-0.165
6405,-0.175
6406,-0.205
6407,-0.175
6408,-0.175
6409,-0.125
6410,-0.115
6411,-0.145
6412,-0.165
6413,-0.145
6414,-0.135
6415,-0.185
6416,-0.225
6417,-0.165
6418,-0.155
6419,-0.175
6420,-0.175
6421,-0.175
6422,-0.185
6423,-0.175
6424,-0.135
6425,-0.225
6426,-0.185
6427,-0.165
6428,-0.175
6429,-0.185
6430,-0.125
6431,-0.125
6432,-0.215
6433,-0.195
6434,-0.165
6435,-0.105
6436,-0.075
6437,-0.075
6438,-0.095
6439,0.005
6440,-0.045
6441,-0.075
6442,-0.125
6443,-0.155
6444,-0.195
6445,-0.195
6446,-0.185
6447,-0.215
6448,-0.235
6449,-0.265
6450,-0.175
6451,-0.175
6452,-0.195
6453,-0.585
6454,-0.865
6455,0.005
6456,1.735
6457,2.755
6458,2.745
6459,2.125
6460,0.405
6461,-0.275
6462,-0.225
6463,-0.245
6464,-0.345
6465,-0.365
6466,-0.355
6467,-0.365
6468,-0.345
6469,-0.325
6470,-0.285
6471,-0.265
6472,-0.235
6473,-0.235
6474,-0.235
6475,-0.195
6476,-0.165
6477,-0.165
6478,-0.125
6479,-0.105
6480,-0.115
6481,-0.135
6482,-0.115
6483,-0.135
6484,-0.145
6485,-0.155
6486,-0.185
6487,-0.215
6488,-0.155
6489,-0.145
6490,-0.125
6491,-0.135
6492,-0.195
6493,-0.145
6494,-0.175
6495,-0.145
6496,-0.155
6497,-0.145
6498,-0.185
6499,-0.135
6500,-0.195
6501,-0.135
6502,-0.135
6503,-0.175
6504,-0.155
6505,-0.155
6506,-0.135
6507,-0.155
6508,-0.195
6509,-0.135
6510,-0.145
6511,-0.145
6512,-0.165
6513,-0.115
6514,-0.095
6515,-0.065
6516,-0.085
6517,0.025
6518,-0.015
6519,-0.075
6520,-0.175
6521,-0.105
6522,-0.135
6523,-0.165
6524,-0.175
6525,-0.225
6526,-0.245
6527,-0.225
6528,-0.235
6529,-0.195
6530,-0.205
6531,-0.425
6532,-0.875
6533,-0.525
6534,0.835
6535,2.465
6536,2.945
6537,2.645
6538,1.305
6539,-0.135
6540,-0.305
6541,-0.295
6542,-0.355
6543,-0.375
6544,-0.325
6545,-0.355
6546,-0.345
6547,-0.315
6548,-0.315
6549,-0.315
6550,-0.305
6551,-0.245
6552,-0.255
6553,-0.245
6554,-0.185
6555,-0.145
6556,-0.145
6557,-0.135
6558,-0.145
6559,-0.105
6560,-0.105
6561,-0.075
6562,-0.135
6563,-0.135
6564,-0.185
6565,-0.205
6566,-0.185
6567,-0.165
6568,-0.115
6569,-0.115
6570,-0.135
6571,-0.115
6572,-0.145
6573,-0.175
6574,-0.155
6575,-0.165
6576,-0.145
6577,-0.175
6578,-0.175
6579,-0.155
6580,-0.145
6581,-0.145
6582,-0.155
6583,-0.125
6584,-0.155
6585,-0.165
6586,-0.155
6587,-0.155
6588,-0.135
6589,-0.155
6590,-0.185
6591,-0.125
6592,-0.105
6593,-0.095
6594,-0.085
6595,-0.095
6596,-0.035
6597,0.035
6598,-0.005
6599,-0.045
6600,-0.095
6601,-0.145
6602,-0.135
6603,-0.135
6604,-0.175
6605,-0.185
6606,-0.225
6607,-0.175
6608,-0.215
6609,-0.175
6610,-0.155
6611,-0.705
6612,-0.785
6613,0.315
6614,2.165
6615,2.895
6616,2.595
6617,1.225
6618,-0.145
6619,-0.315
6620,-0.305
6621,-0.305
6622,-0.305
6623,-0.315
6624,-0.315
6625,-0.295
6626,-0.285
6627,-0.265
6628,-0.265
6629,-0.245
6630,-0.225
6631,-0.215
6632,-0.195
6633,-0.225
6634,-0.145
6635,-0.135
6636,-0.135
6637,-0.125
6638,-0.065
6639,-0.085
6640,-0.105
6641,-0.185
6642,-0.145
6643,-0.125
6644,-0.135
6645,-0.125
6646,-0.115
6647,-0.075
6648,-0.065
6649,-0.085
6650,-0.105
6651,-0.155
6652,-0.105
6653,-0.135
6654,-0.165
6655,-0.135
6656,-0.115
6657,-0.135
6658,-0.135
6659,-0.125
6660,-0.135
6661,-0.175
6662,-0.145
6663,-0.135
6664,-0.145
6665,-0.155
6666,-0.145
6667,-0.125
6668,-0.135
6669,-0.135
6670,-0.125
6671,-0.125
6672,-0.105
6673,-0.085
6674,-0.085
6675,0.035
6676,0.015
6677,-0.065
6678,-0.095
6679,-0.135
6680,-0.145
6681,-0.125
6682,-0.145
6683,-0.185
6684,-0.225
6685,-0.255
6686,-0.215
6687,-0.135
6688,-0.145
6689,-0.335
6690,-0.915
6691,-0.545
6692,0.695
6693,2.345
6694,2.835
6695,2.585
6696,1.275
6697,-0.195
6698,-0.365
6699,-0.255
6700,-0.295
6701,-0.345
6702,-0.355
6703,-0.305
6704,-0.345
6705,-0.345
6706,-0.295
6707,-0.265
6708,-0.285
6709,-0.285
6710,-0.225
6711,-0.175
6712,-0.205
6713,-0.185
6714,-0.165
6715,-0.165
6716,-0.145
6717,-0.115
6718,-0.135
6719,-0.155
6720,-0.155
6721,-0.175
6722,-0.205
6723,-0.205
6724,-0.165
6725,-0.105
6726,-0.105
6727,-0.095
6728,-0.135
6729,-0.155
6730,-0.145
6731,-0.135
6732,-0.145
6733,-0.185
6734,-0.185
6735,-0.135
6736,-0.175
6737,-0.155
6738,-0.135
6739,-0.175
6740,-0.155
6741,-0.155
6742,-0.145
6743,-0.135
6744,-0.155
6745,-0.185
6746,-0.185
6747,-0.105
6748,-0.145
6749,-0.065
6750,-0.085
6751,-0.095
6752,-0.055
6753,0.015
6754,0.005
6755,-0.085
6756,-0.165
6757,-0.105
6758,-0.115
6759,-0.125
6760,-0.205
6761,-0.215
6762,-0.205
6763,-0.175
6764,-0.195
6765,-0.135
6766,-0.165
6767,-0.745
6768,-0.825
6769,0.135
6770,1.845
6771,2.735
6772,2.695
6773,1.885
6774,0.295
6775,-0.235
6776,-0.225
6777,-0.255
6778,-0.305
6779,-0.315
6780,-0.285
6781,-0.265
6782,-0.275
6783,-0.285
6784,-0.265
6785,-0.245
6786,-0.245
6787,-0.195
6788,-0.185
6789,-0.175
6790,-0.135
6791,-0.135
6792,-0.115
6793,-0.105
6794,-0.095
6795,-0.115
6796,-0.115
6797,-0.125
6798,-0.145
6799,-0.175
6800,-0.195
6801,-0.205
6802,-0.145
6803,-0.145
6804,-0.115
6805,-0.145
6806,-0.165
6807,-0.125
6808,-0.135
6809,-0.135
6810,-0.145
6811,-0.135
6812,-0.155
6813,-0.135
6814,-0.185
6815,-0.145
6816,-0.135
6817,-0.165
6818,-0.165
6819,-0.135
6820,-0.115
6821,-0.185
6822,-0.145
6823,-0.145
6824,-0.135
6825,-0.175
6826,-0.135
6827,-0.085
6828,-0.075
6829,-0.105
6830,-0.075
6831,0.035
6832,-0.015
6833,-0.105
6834,-0.125
6835,-0.135
6836,-0.165
6837,-0.165
6838,-0.225
6839,-0.235
6840,-0.285
6841,-0.245
6842,-0.205
6843,-0.195
6844,-0.235
6845,-0.905
6846,-0.775
6847,0.505
6848,2.325
6849,2.935
6850,2.605
6851,1.235
6852,-0.165
6853,-0.315
6854,-0.285
6855,-0.315
6856,-0.355
6857,-0.425
6858,-0.405
6859,-0.335
6860,-0.315
6861,-0.335
6862,-0.335
6863,-0.305
6864,-0.325
6865,-0.275
6866,-0.215
6867,-0.205
6868,-0.235
6869,-0.175
6870,-0.185
6871,-0.115
6872,-0.165
6873,-0.155
6874,-0.165
6875,-0.175
6876,-0.175
6877,-0.205
6878,-0.235
6879,-0.205
6880,-0.175
6881,-0.145
6882,-0.185
6883,-0.125
6884,-0.155
6885,-0.195
6886,-0.185
6887,-0.195
6888,-0.205
6889,-0.185
6890,-0.215
6891,-0.185
6892,-0.155
6893,-0.185
6894,-0.165
6895,-0.155
6896,-0.185
6897,-0.165
6898,-0.185
6899,-0.165
6900,-0.205
6901,-0.185
6902,-0.185
6903,-0.185
6904,-0.145
6905,-0.115
6906,-0.075
6907,-0.105
6908,-0.045
6909,-0.025
6910,-0.095
6911,-0.115
6912,-0.145
6913,-0.135
6914,-0.215
6915,-0.205
6916,-0.235
6917,-0.265
6918,-0.235
6919,-0.185
6920,-0.195
6921,-0.195
6922,-0.375
6923,-0.935
6924,-0.705
6925,0.635
6926,2.355
6927,2.855
6928,2.485
6929,0.825
6930,-0.315
6931,-0.335
6932,-0.335
6933,-0.345
6934,-0.365
6935,-0.375
6936,-0.375
6937,-0.335
6938,-0.375
6939,-0.345
6940,-0.295
6941,-0.305
6942,-0.255
6943,-0.275
6944,-0.255
6945,-0.255
6946,-0.195
6947,-0.175
6948,-0.175
6949,-0.175
6950,-0.175
6951,-0.185
6952,-0.165
6953,-0.255
6954,-0.235
6955,-0.215
6956,-0.205
6957,-0.155
6958,-0.165
6959,-0.155
6960,-0.135
6961,-0.135
6962,-0.165
6963,-0.185
6964,-0.185
6965,-0.225
6966,-0.195
6967,-0.155
6968,-0.185
6969,-0.195
6970,-0.185
6971,-0.165
6972,-0.235
6973,-0.205
6974,-0.195
6975,-0.145
6976,-0.185
6977,-0.235
6978,-0.195
6979,-0.225
6980,-0.175
6981,-0.185
6982,-0.225
6983,-0.185
6984,-0.145
6985,-0.135
6986,-0.125
6987,-0.185
6988,-0.005
6989,-0.035
6990,-0.155
6991,-0.145
6992,-0.165
6993,-0.155
6994,-0.185
6995,-0.215
6996,-0.235
6997,-0.265
6998,-0.255
6999,-0.215
7000,-0.235
7001,-0.235
7002,-0.485
7003,-0.925
7004,-0.305
7005,1.225
7006,2.605
7007,2.705
7008,2.245
7009,0.465
7010,-0.405
7011,-0.335
7012,-0.305
7013,-0.365
7014,-0.385
7015,-0.385
7016,-0.375
7017,-0.375
7018,-0.335
7019,-0.345
7020,-0.355
7021,-0.275
7022,-0.255
7023,-0.245
7024,-0.245
7025,-0.215
7026,-0.185
7027,-0.175
7028,-0.205
7029,-0.165
7030,-0.165
7031,-0.165
7032,-0.175
7033,-0.245
7034,-0.215
7035,-0.205
7036,-0.155
7037,-0.135
7038,-0.115
7039,-0.095
7040,-0.135
7041,-0.175
7042,-0.165
7043,-0.135
7044,-0.145
7045,-0.175
7046,-0.175
7047,-0.165
7048,-0.145
7049,-0.195
7050,-0.205
7051,-0.165
7052,-0.185
7053,-0.165
7054,-0.135
7055,-0.165
7056,-0.205
7057,-0.155
7058,-0.145
7059,-0.165
7060,-0.175
7061,-0.175
7062,-0.125
7063,-0.085
7064,-0.105
7065,-0.145
7066,-0.025
7067,0.005
7068,-0.045
7069,-0.085
7070,-0.095
7071,-0.115
7072,-0.175
7073,-0.175
7074,-0.205
7075,-0.275
7076,-0.255
7077,-0.225
7078,-0.145
7079,-0.185
7080,-0.395
7081,-0.925
7082,-0.445
7083,0.985
7084,2.495
7085,2.925
7086,2.605
7087,1.095
7088,-0.215
7089,-0.285
7090,-0.295
7091,-0.315
7092,-0.325
7093,-0.345
7094,-0.335
7095,-0.335
7096,-0.335
7097,-0.265
7098,-0.275
7099,-0.295
7100,-0.255
7101,-0.195
7102,-0.185
7103,-0.165
7104,-0.165
7105,-0.135
7106,-0.165
7107,-0.115
7108,-0.125
7109,-0.115
7110,-0.135
7111,-0.175
7112,-0.195
7113,-0.175
7114,-0.185
7115,-0.185
7116,-0.135
7117,-0.095
7118,-0.095
7119,-0.105
7120,-0.125
7121,-0.115
7122,-0.125
7123,-0.145
7124,-0.115
7125,-0.135
7126,-0.125
7127,-0.135
7128,-0.115
7129,-0.145
7130,-0.125
7131,-0.105
7132,-0.105
7133,-0.125
7134,-0.115
7135,-0.145
7136,-0.115
7137,-0.095
7138,-0.115
7139,-0.115
7140,-0.065
7141,-0.055
7142,-0.055
7143,-0.015
7144,0.035
7145,0.005
7146,-0.065
7147,-0.035
7148,-0.115
7149,-0.075
7150,-0.115
7151,-0.165
7152,-0.175
7153,-0.195
7154,-0.185
7155,-0.195
7156,-0.115
7157,-0.215
7158,-0.845
7159,-0.685
7160,0.645
7161,2.365
7162,2.935
7163,2.755
7164,1.585
7165,0.035
7166,-0.275
7167,-0.255
7168,-0.275
7169,-0.315
7170,-0.355
7171,-0.275
7172,-0.305
7173,-0.295
7174,-0.265
7175,-0.255
7176,-0.255
7177,-0.245
7178,-0.215
7179,-0.185
7180,-0.165
7181,-0.145
7182,-0.135
7183,-0.125
7184,-0.115
7185,-0.065
7186,-0.075
7187,-0.095
7188,-0.115
7189,-0.165
7190,-0.165
7191,-0.195
7192,-0.155
7193,-0.135
7194,-0.105
7195,-0.115
7196,-0.115
7197,-0.105
7198,-0.105
7199,-0.135
7200,-0.105
7201,-0.105
7202,-0.125
7203,-0.145
7204,-0.125
7205,-0.135
7206,-0.145
7207,-0.095
7208,-0.095
7209,-0.135
7210,-0.115
7211,-0.095
7212,-0.105
7213,-0.115
7214,-0.105
7215,-0.175
7216,-0.095
7217,-0.175
7218,-0.125
7219,-0.055
7220,-0.045
7221,-0.065
7222,-0.045
7223,0.065
7224,0.065
7225,-0.035
7226,-0.075
7227,-0.135
7228,-0.085
7229,-0.125
7230,-0.125
7231,-0.165
7232,-0.215
7233,-0.175
7234,-0.175
7235,-0.165
7236,-0.185
7237,-0.705
7238,-0.815
7239,0.385
7240,2.215
7241,2.865
7242,2.575
7243,1.095
7244,-0.155
7245,-0.285
7246,-0.315
7247,-0.315
7248,-0.335
7249,-0.345
7250,-0.325
7251,-0.305
7252,-0.285
7253,-0.285
7254,-0.255
7255,-0.245
7256,-0.225
7257,-0.225
7258,-0.205
7259,-0.215
7260,-0.125
7261,-0.125
7262,-0.155
7263,-0.125
7264,-0.105
7265,-0.105
7266,-0.125
7267,-0.155
7268,-0.145
7269,-0.185
7270,-0.155
7271,-0.175
7272,-0.115
7273,-0.115
7274,-0.085
7275,-0.075
7276,-0.155
7277,-0.095
7278,-0.105
7279,-0.115
7280,-0.145
7281,-0.135
7282,-0.155
7283,-0.105
7284,-0.155
7285,-0.165
7286,-0.115
7287,-0.105
7288,-0.135
7289,-0.145
7290,-0.115
7291,-0.125
7292,-0.135
7293,-0.185
7294,-0.105
7295,-0.145
7296,-0.135
7297,-0.115
7298,-0.155
7299,-0.125
7300,-0.075
7301,-0.095
7302,-0.085
7303,-0.025
7304,0.075
7305,-0.005
7306,-0.075
7307,-0.125
7308,-0.095
7309,-0.155
7310,-0.145
7311,-0.215
7312,-0.215
7313,-0.185
7314,-0.205
7315,-0.195
7316,-0.135
7317,-0.295
7318,-0.855
7319,-0.455
7320,0.945
7321,2.495
7322,2.785
7323,2.485
7324,0.955
7325,-0.275
7326,-0.335
7327,-0.275
7328,-0.355
7329,-0.335
7330,-0.365
7331,-0.365
7332,-0.305
7333,-0.295
7334,-0.325
7335,-0.285
7336,-0.255
7337,-0.285
7338,-0.235
7339,-0.205
7340,-0.205
7341,-0.175
7342,-0.165
7343,-0.155
7344,-0.155
7345,-0.145
7346,-0.185
7347,-0.205
7348,-0.215
7349,-0.215
7350,-0.245
7351,-0.195
7352,-0.105
7353,-0.115
7354,-0.105
7355,-0.075
7356,-0.125
7357,-0.135
7358,-0.135
7359,-0.155
7360,-0.165
7361,-0.155
7362,-0.185
7363,-0.165
7364,-0.185
7365,-0.185
7366,-0.155
7367,-0.165
7368,-0.155
7369,-0.145
7370,-0.175
7371,-0.165
7372,-0.165
7373,-0.215
7374,-0.195
7375,-0.125
7376,-0.135
7377,-0.105
7378,-0.085
7379,-0.105
7380,-0.095
7381,-0.055
7382,-0.025
7383,-0.055
7384,-0.075
7385,-0.105
7386,-0.155
7387,-0.155
7388,-0.175
7389,-0.205
7390,-0.205
7391,-0.205
7392,-0.195
7393,-0.205
7394,-0.165
7395,-0.395
7396,-0.925
7397,-0.455
7398,1.175
7399,2.685
7400,2.855
7401,2.295
7402,0.345
7403,-0.375
7404,-0.305
7405,-0.305
7406,-0.335
7407,-0.335
7408,-0.355
7409,-0.385
7410,-0.325
7411,-0.315
7412,-0.275
7413,-0.265
7414,-0.245
7415,-0.245
7416,-0.205
7417,-0.185
7418,-0.195
7419,-0.195
7420,-0.125
7421,-0.125
7422,-0.135
7423,-0.185
7424,-0.155
7425,-0.125
7426,-0.155
7427,-0.175
7428,-0.215
7429,-0.155
7430,-0.135
7431,-0.125
7432,-0.115
7433,-0.105
7434,-0.105
7435,-0.135
7436,-0.135
7437,-0.165
7438,-0.185
7439,-0.125
7440,-0.175
7441,-0.165
7442,-0.125
7443,-0.115
7444,-0.145
7445,-0.145
7446,-0.125
7447,-0.185
7448,-0.125
7449,-0.115
7450,-0.115
7451,-0.145
7452,-0.135
7453,-0.115
7454,-0.095
7455,-0.055
7456,-0.045
7457,-0.045
7458,0.055
7459,-0.015
7460,-0.075
7461,-0.125
7462,-0.085
7463,-0.095
7464,-0.125
7465,-0.185
7466,-0.235
7467,-0.185
7468,-0.185
7469,-0.195
7470,-0.165
7471,-0.265
7472,-0.895
7473,-0.785
7474,0.465
7475,2.375
7476,3.025
7477,2.715
7478,1.485
7479,-0.045
7480,-0.255
7481,-0.225
7482,-0.295
7483,-0.335
7484,-0.335
7485,-0.315
7486,-0.315
7487,-0.295
7488,-0.285
7489,-0.295
7490,-0.265
7491,-0.205
7492,-0.175
7493,-0.195
7494,-0.175
7495,-0.145
7496,-0.145
7497,-0.135
7498,-0.125
7499,-0.115
7500,-0.105
7501,-0.125
7502,-0.165
7503,-0.185
7504,-0.215
7505,-0.225
7506,-0.185
7507,-0.155
7508,-0.115
7509,-0.105
7510,-0.165
7511,-0.135
7512,-0.115
7513,-0.125
7514,-0.135
7515,-0.145
7516,-0.165
7517,-0.135
7518,-0.165
7519,-0.135
7520,-0.135
7521,-0.105
7522,-0.145
7523,-0.135
7524,-0.115
7525,-0.135
7526,-0.145
7527,-0.135
7528,-0.095
7529,-0.105
7530,-0.055
7531,-0.075
7532,-0.115
7533,-0.025
7534,0.065
7535,-0.005
7536,-0.065
7537,-0.075
7538,-0.095
7539,-0.135
7540,-0.175
7541,-0.165
7542,-0.155
7543,-0.185
7544,-0.175
7545,-0.195
7546,-0.185
7547,-0.215
7548,-0.885
7549,-0.785
7550,0.555
7551,2.205
7552,2.895
7553,2.675
7554,1.425
7555,-0.025
7556,-0.285
7557,-0.225
7558,-0.285
7559,-0.335
7560,-0.385
7561,-0.385
7562,-0.285
7563,-0.315
7564,-0.295
7565,-0.265
7566,-0.255
7567,-0.265
7568,-0.225
7569,-0.185
7570,-0.175
7571,-0.185
7572,-0.165
7573,-0.135
7574,-0.125
7575,-0.095
7576,-0.115
7577,-0.155
7578,-0.145
7579,-0.185
7580,-0.185
7581,-0.225
7582,-0.155
7583,-0.145
7584,-0.135
7585,-0.135
7586,-0.115
7587,-0.125
7588,-0.145
7589,-0.115
7590,-0.155
7591,-0.155
7592,-0.145
7593,-0.145
7594,-0.175
7595,-0.125
7596,-0.135
7597,-0.185
7598,-0.135
7599,-0.115
7600,-0.135
7601,-0.155
7602,-0.165
7603,-0.125
7604,-0.095
7605,-0.155
7606,-0.155
7607,-0.095
7608,-0.045
7609,-0.105
7610,-0.105
7611,0.045
7612,0.035
7613,-0.045
7614,-0.095
7615,-0.085
7616,-0.115
7617,-0.145
7618,-0.165
7619,-0.205
7620,-0.225
7621,-0.195
7622,-0.185
7623,-0.205
7624,-0.215
7625,-0.595
7626,-0.855
7627,-0.335
7628,1.225
7629,2.575
7630,2.685
7631,2.125
7632,0.495
7633,-0.275
7634,-0.285
7635,-0.325
7636,-0.345
7637,-0.325
7638,-0.345
7639,-0.305
7640,-0.305
7641,-0.355
7642,-0.285
7643,-0.255
7644,-0.295
7645,-0.255
7646,-0.185
7647,-0.185
7648,-0.185
7649,-0.185
7650,-0.165
7651,-0.135
7652,-0.105
7653,-0.135
7654,-0.165
7655,-0.135
7656,-0.175
7657,-0.195
7658,-0.185
7659,-0.155
7660,-0.135
7661,-0.145
7662,-0.075
7663,-0.095
7664,-0.145
7665,-0.125
7666,-0.155
7667,-0.155
7668,-0.195
7669,-0.135
7670,-0.125
7671,-0.145
7672,-0.155
7673,-0.155
7674,-0.125
7675,-0.125
7676,-0.155
7677,-0.145
7678,-0.175
7679,-0.145
7680,-0.165
